-0.0449181
-0.0440598
-0.0434876
-0.0432015
-0.0432015
-0.044632
-0.0466347
-0.047493
-0.0480652
-0.0489235
-0.0500679
-0.050354
-0.0500679
-0.0486374
-0.0480652
-0.047493
-0.0472069
-0.0466347
-0.0463486
-0.0454903
-0.0452042
-0.0454903
-0.0452042
-0.0443459
-0.0432015
-0.0429154
-0.0429154
-0.042057
-0.0417709
-0.0429154
-0.0443459
-0.0449181
-0.0452042
-0.0460625
-0.047493
-0.0472069
-0.0466347
-0.0463486
-0.0457764
-0.044632
-0.0432015
-0.0432015
-0.0437737
-0.0437737
-0.0449181
-0.0460625
-0.0466347
-0.047493
-0.0477791
-0.0486374
-0.0489235
-0.0489235
-0.0492096
-0.0500679
-0.0512123
-0.0514984
-0.0514984
-0.0526428
-0.0537872
-0.0540733
-0.0546456
-0.0560761
-0.0580788
-0.0597954
-0.0609398
-0.0623703
-0.0638008
-0.0655174
-0.0666618
-0.0678063
-0.0675202
-0.0663758
-0.066948
-0.0686646
-0.0695229
-0.0703812
-0.0706673
-0.0715256
-0.0715256
-0.0712395
-0.0706673
-0.0706673
-0.0720978
-0.0723839
-0.0715256
-0.0715256
-0.0718117
-0.0715256
-0.07267
-0.0729561
-0.0718117
-0.0715256
-0.0709534
-0.0706673
-0.0715256
-0.0712395
-0.0706673
-0.0695229
-0.0689507
-0.0675202
-0.0672341
-0.0678063
-0.0678063
-0.0680924
-0.0686646
-0.0686646
-0.0680924
-0.0692368
-0.0706673
-0.0715256
-0.07267
-0.0732422
-0.0743866
-0.075531
-0.0766754
-0.0769615
-0.0772476
-0.0775337
-0.0778198
-0.0778198
-0.0775337
-0.0772476
-0.0763893
-0.0758171
-0.0761032
-0.0766754
-0.0772476
-0.0761032
-0.0738144
-0.0723839
-0.0709534
-0.0700951
-0.0700951
-0.069809
-0.069809
-0.0683785
-0.0666618
-0.0658035
-0.0649452
-0.0649452
-0.0658035
-0.0658035
-0.0632286
-0.0617981
-0.0629425
-0.0660896
-0.0678063
-0.0683785
-0.0695229
-0.0700951
-0.0706673
-0.0715256
-0.0729561
-0.0741005
-0.0732422
-0.0720978
-0.0709534
-0.069809
-0.0689507
-0.0695229
-0.0695229
-0.0689507
-0.0675202
-0.066948
-0.066948
-0.0660896
-0.0660896
-0.0649452
-0.0638008
-0.0632286
-0.0635147
-0.0649452
-0.0663758
-0.0663758
-0.0660896
-0.0646591
-0.0626564
-0.0635147
-0.064373
-0.064373
-0.064373
-0.064373
-0.0646591
-0.0652313
-0.0666618
-0.0663758
-0.0652313
-0.0638008
-0.0620842
-0.0606537
-0.0606537
-0.061512
-0.0629425
-0.0652313
-0.0655174
-0.0652313
-0.0660896
-0.0666618
-0.0678063
-0.069809
-0.0720978
-0.0720978
-0.0709534
-0.0700951
-0.0700951
-0.0700951
-0.069809
-0.0692368
-0.0689507
-0.0678063
-0.0652313
-0.0638008
-0.0629425
-0.0617981
-0.0617981
-0.0612259
-0.0597954
-0.0580788
-0.0575066
-0.0577927
-0.0583649
-0.0577927
-0.0572205
-0.0575066
-0.0583649
-0.0583649
-0.0589371
-0.0603676
-0.0612259
-0.0617981
-0.0620842
-0.0606537
-0.0600815
-0.0600815
-0.0597954
-0.0612259
-0.0632286
-0.0640869
-0.0646591
-0.0649452
-0.064373
-0.0646591
-0.0649452
-0.064373
-0.0655174
-0.0663758
-0.0675202
-0.0689507
-0.0703812
-0.0706673
-0.0700951
-0.0695229
-0.0675202
-0.0640869
-0.0603676
-0.0580788
-0.0560761
-0.0535011
-0.0509262
-0.0506401
-0.050354
-0.0486374
-0.0460625
-0.0432015
-0.0406265
-0.0383377
-0.0371933
-0.0357628
-0.033474
-0.0323296
-0.0326157
-0.0329018
-0.0326157
-0.0320435
-0.0320435
-0.0317574
-0.0311852
-0.0311852
-0.0317574
-0.033474
-0.036335
-0.0383377
-0.0409126
-0.0426293
-0.0440598
-0.0452042
-0.0454903
-0.0466347
-0.0483513
-0.0483513
-0.0489235
-0.0500679
-0.0509262
-0.0500679
-0.0477791
-0.0452042
-0.0432015
-0.0397682
-0.0360489
-0.0323296
-0.0283241
-0.0246048
-0.0208855
-0.0171661
-0.0134468
-0.0102997
-0.0074387
-0.005722
-0.0042915
-0.0031471
-0.002861
-0.0034332
-0.0048637
-0.0051498
-0.0048637
-0.0054359
-0.0060081
-0.0080109
-0.011158
-0.0134468
-0.0154495
-0.0171661
-0.0183106
-0.0203133
-0.0234604
-0.025177
-0.0260353
-0.028038
-0.0317574
-0.0354767
-0.0397682
-0.0440598
-0.0477791
-0.0512123
-0.053215
-0.0549317
-0.0572205
-0.0603676
-0.0623703
-0.0640869
-0.0660896
-0.0666618
-0.0675202
-0.0689507
-0.0692368
-0.0692368
-0.0678063
-0.0658035
-0.0638008
-0.0620842
-0.0606537
-0.0595093
-0.0589371
-0.0566483
-0.053215
-0.0509262
-0.0509262
-0.0500679
-0.0500679
-0.0500679
-0.0512123
-0.0523567
-0.0520706
-0.0517845
-0.0523567
-0.0540733
-0.0549317
-0.0555039
-0.0549317
-0.0537872
-0.0535011
-0.0540733
-0.0537872
-0.0520706
-0.0506401
-0.0494957
-0.047493
-0.0449181
-0.0429154
-0.0426293
-0.0440598
-0.0443459
-0.0434876
-0.0426293
-0.0426293
-0.0406265
-0.0357628
-0.0288963
-0.0203133
-0.0117302
-0.0017166
0.0100136
0.0234604
0.0389099
0.0555039
0.0743866
0.0938416
0.1135826
0.1327515
0.1519203
0.1708031
0.1911164
0.2108574
0.2268791
0.2400399
0.2509117
0.2609253
0.2695084
0.2752304
0.279522
0.282383
0.2846718
0.2855301
0.2866745
0.2912522
0.296402
0.298977
0.2992631
0.2969742
0.2926827
0.2872467
0.2803803
0.2709389
0.260067
0.2483368
0.2366066
0.2251625
0.2111435
0.1968384
0.1828194
0.1682282
0.1522064
0.1379013
0.1264572
0.1164437
0.1075745
0.1004219
0.0961304
0.0941277
0.0952721
0.0969887
0.0984192
0.0987053
0.0984192
0.1001358
0.1018524
0.1029968
0.1029968
0.1024246
0.1004219
0.0961304
0.092125
0.0889778
0.0861168
0.0818253
0.0766754
0.0720978
0.0680924
0.0649452
0.0629425
0.0600815
0.0563622
0.0514984
0.0466347
0.0434876
0.0406265
0.0369072
0.0326157
0.0283241
0.0234604
0.0180245
0.014019
0.0117302
0.0085831
0.0051498
0.0017166
-0.0017166
-0.0045776
-0.0068665
-0.008297
-0.0088692
-0.0100136
-0.0114441
-0.0125885
-0.0125885
-0.0114441
-0.0094414
-0.0071526
-0.0054359
-0.0025749
-0.0002861
0.0022888
0.0048637
0.0074387
0.0094414
0.011158
0.0123024
0.0128746
0.0143051
0.0154495
0.0160217
0.01688
0.0185967
0.0205994
0.0217438
0.0220299
0.0208855
0.0183106
0.0171661
0.0177383
0.0188828
0.0203133
0.0203133
0.0197411
0.0203133
0.0208855
0.0211716
0.0217438
0.022316
0.0226021
0.022316
0.0234604
0.0257492
0.0286102
0.0317574
0.0331879
0.0329018
0.0323296
0.0317574
0.0320435
0.033474
0.0346184
0.0351906
0.0366211
0.0386238
0.0397682
0.0411987
0.0426293
0.0423431
0.0411987
0.0397682
0.0383377
0.0371933
0.0371933
0.0366211
0.0360489
0.0354767
0.0357628
0.0366211
0.0366211
0.0354767
0.0357628
0.0377655
0.0386238
0.0400543
0.0426293
0.0440598
0.0449181
0.0460625
0.0469208
0.0466347
0.0469208
0.047493
0.0480652
0.0492096
0.0509262
0.0523567
0.0540733
0.0549317
0.0555039
0.0563622
0.0575066
0.0592232
0.0612259
0.0632286
0.0658035
0.0678063
0.0689507
0.0700951
0.0706673
0.0718117
0.0718117
0.0720978
0.0732422
0.0746727
0.0763893
0.0778198
0.0792504
0.0803948
0.0803948
0.0798226
0.0801087
0.080967
0.0821114
0.0835419
0.0852585
0.0878334
0.0901222
0.0932694
0.0952721
0.0975609
0.1015663
0.1047135
0.1078606
0.1101494
0.1124382
0.1164437
0.1207352
0.1238823
0.1253128
0.1270294
0.1290321
0.1307488
0.1316071
0.1327515
0.1330376
0.1324654
0.1318932
0.1304627
0.1304627
0.1310349
0.1307488
0.1304627
0.1290321
0.1273155
0.125885
0.1247406
0.1250267
0.1250267
0.1241684
0.1250267
0.1250267
0.1241684
0.1244545
0.1238823
0.123024
0.1210213
0.1190186
0.1181603
0.1175881
0.1164437
0.1155853
0.1138687
0.1121521
0.109005
0.106144
0.1038551
0.0998497
0.0958443
0.0932694
0.0892639
0.0846863
0.0803948
0.0769615
0.0738144
0.0695229
0.0646591
0.0603676
0.0563622
0.0526428
0.0483513
0.0440598
0.0394821
0.0349045
0.0311852
0.0271797
0.0228882
0.0191689
0.0160217
0.0131607
0.0094414
0.0054359
0.0017166
-0.0014305
-0.0042915
-0.0062943
-0.0088692
-0.0114441
-0.0145912
-0.0171661
-0.0197411
-0.0231743
-0.0266075
-0.0303269
-0.0340462
-0.0374794
-0.0389099
-0.0409126
-0.0432015
-0.0454903
-0.0492096
-0.0537872
-0.0589371
-0.0640869
-0.0686646
-0.0738144
-0.0786782
-0.0823975
-0.083828
-0.0846863
-0.086689
-0.0878334
-0.0884056
-0.0901222
-0.0909805
-0.0918389
-0.0935555
-0.0946999
-0.0958443
-0.0961304
-0.0964165
-0.0972748
-0.0972748
-0.0975609
-0.0981331
-0.0995636
-0.1012802
-0.1024246
-0.103569
-0.1044274
-0.1055718
-0.1064301
-0.1067162
-0.1058579
-0.1041413
-0.1038551
-0.1049996
-0.1055718
-0.1070023
-0.109005
-0.1095772
-0.1112938
-0.1138687
-0.1152992
-0.1170159
-0.1187325
-0.1204491
-0.1213074
-0.1215935
-0.1233101
-0.1255989
-0.1278878
-0.1293183
-0.131321
-0.1333237
-0.1336098
-0.1330376
-0.1327515
-0.1327515
-0.1324654
-0.1316071
-0.1290321
-0.1261711
-0.1238823
-0.1224518
-0.1215935
-0.1184464
-0.1152992
-0.1138687
-0.111866
-0.1084328
-0.1041413
-0.1001358
-0.0958443
-0.092125
-0.0898361
-0.0884056
-0.0901222
-0.0944138
-0.0987053
-0.1024246
-0.1058579
-0.109005
-0.1132965
-0.1167298
-0.1164437
-0.1150131
-0.1135826
-0.1130104
-0.1132965
-0.1138687
-0.1135826
-0.1127243
-0.1135826
-0.1152992
-0.1152992
-0.1150131
-0.1152992
-0.1158715
-0.1152992
-0.114727
-0.1132965
-0.1115799
-0.1107216
-0.1098633
-0.1101494
-0.1098633
-0.1092911
-0.1087189
-0.1081467
-0.1081467
-0.1072884
-0.1064301
-0.1055718
-0.1027107
-0.0995636
-0.0972748
-0.0955582
-0.0926972
-0.08955
-0.0864029
-0.0835419
-0.0818253
-0.080967
-0.0803948
-0.0801087
-0.080967
-0.0818253
-0.0829697
-0.0835419
-0.0823975
-0.0815392
-0.0806809
-0.080967
-0.0806809
-0.0792504
-0.0775337
-0.0763893
-0.0761032
-0.0749588
-0.0732422
-0.0712395
-0.0689507
-0.0683785
-0.0675202
-0.0658035
-0.0638008
-0.0626564
-0.0620842
-0.0626564
-0.0617981
-0.0592232
-0.0569344
-0.0577927
-0.0589371
-0.0603676
-0.0606537
-0.0606537
-0.0609398
-0.0632286
-0.0649452
-0.0658035
-0.0649452
-0.0635147
-0.0632286
-0.0626564
-0.061512
-0.0612259
-0.0612259
-0.0612259
-0.0620842
-0.0629425
-0.0632286
-0.0638008
-0.0646591
-0.0658035
-0.0678063
-0.0695229
-0.0692368
-0.0686646
-0.0689507
-0.066948
-0.0649452
-0.0649452
-0.0640869
-0.0620842
-0.061512
-0.0606537
-0.0606537
-0.0609398
-0.0603676
-0.0597954
-0.0592232
-0.0595093
-0.0589371
-0.058651
-0.0583649
-0.0580788
-0.058651
-0.0592232
-0.058651
-0.0577927
-0.0577927
-0.0580788
-0.0592232
-0.0603676
-0.0629425
-0.0660896
-0.066948
-0.0675202
-0.0683785
-0.0689507
-0.0692368
-0.0683785
-0.0672341
-0.0666618
-0.066948
-0.0680924
-0.0680924
-0.0683785
-0.0692368
-0.0695229
-0.0692368
-0.0675202
-0.0655174
-0.0666618
-0.0703812
-0.0732422
-0.0741005
-0.0735283
-0.0732422
-0.0741005
-0.0746727
-0.0741005
-0.0735283
-0.0729561
-0.0732422
-0.0741005
-0.0746727
-0.0752449
-0.0763893
-0.0778198
-0.0781059
-0.0778198
-0.0775337
-0.0772476
-0.0766754
-0.0769615
-0.0766754
-0.0769615
-0.0772476
-0.0763893
-0.0743866
-0.0723839
-0.0712395
-0.0706673
-0.0706673
-0.0703812
-0.0692368
-0.0692368
-0.0692368
-0.0692368
-0.0695229
-0.0689507
-0.0683785
-0.0678063
-0.0652313
-0.0632286
-0.0612259
-0.0597954
-0.0592232
-0.0589371
-0.058651
-0.058651
-0.0577927
-0.0577927
-0.0592232
-0.0612259
-0.061512
-0.0609398
-0.0606537
-0.0609398
-0.0617981
-0.064373
-0.0675202
-0.0689507
-0.0706673
-0.0735283
-0.0766754
-0.0795365
-0.0806809
-0.0829697
-0.0858307
-0.0889778
-0.0904083
-0.0924111
-0.0929833
-0.0929833
-0.0918389
-0.0906944
-0.0901222
-0.0875473
-0.0846863
-0.083828
-0.0841141
-0.0832558
-0.0815392
-0.0801087
-0.0795365
-0.0803948
-0.080967
-0.0801087
-0.0781059
-0.0761032
-0.0749588
-0.0752449
-0.0746727
-0.0729561
-0.0729561
-0.0738144
-0.0729561
-0.0695229
-0.0686646
-0.0695229
-0.0695229
-0.0680924
-0.0646591
-0.0606537
-0.0563622
-0.0523567
-0.0492096
-0.0454903
-0.0411987
-0.0389099
-0.0377655
-0.0369072
-0.0380516
-0.042057
-0.0492096
-0.0546456
-0.0575066
-0.0609398
-0.0638008
-0.0660896
-0.0663758
-0.0649452
-0.0626564
-0.0600815
-0.0583649
-0.0572205
-0.05579
-0.0543594
-0.0535011
-0.0540733
-0.0540733
-0.0535011
-0.0523567
-0.0517845
-0.0517845
-0.0523567
-0.0523567
-0.0523567
-0.0523567
-0.0523567
-0.053215
-0.0546456
-0.0563622
-0.0572205
-0.0589371
-0.0612259
-0.0626564
-0.0635147
-0.0638008
-0.0640869
-0.0640869
-0.0635147
-0.0626564
-0.0617981
-0.0595093
-0.0575066
-0.05579
-0.0540733
-0.0520706
-0.0506401
-0.0509262
-0.0509262
-0.0500679
-0.0497818
-0.0492096
-0.0489235
-0.0483513
-0.0477791
-0.047493
-0.0463486
-0.044632
-0.0437737
-0.0423431
-0.0406265
-0.0389099
-0.0380516
-0.0371933
-0.036335
-0.0354767
-0.0346184
-0.0343323
-0.0346184
-0.0329018
-0.0317574
-0.030613
-0.0286102
-0.0274658
-0.0257492
-0.0240326
-0.0220299
-0.0205994
-0.0203133
-0.0197411
-0.0188828
-0.0174522
-0.0163078
-0.0163078
-0.0160217
-0.0163078
-0.0183106
-0.0211716
-0.0248909
-0.0291824
-0.0314713
-0.0331879
-0.0351906
-0.0377655
-0.0411987
-0.0423431
-0.0423431
-0.0411987
-0.0403404
-0.0394821
-0.0389099
-0.0374794
-0.0349045
-0.0320435
-0.028038
-0.0226021
-0.0165939
-0.0120163
-0.0088692
-0.0062943
-0.0037193
-0.0005722
0.0011444
0.0020027
0.0020027
0.0031471
0.0042915
0.0040054
0.0022888
0.0011444
0.0002861
0
-0.0002861
-0.0017166
-0.0034332
-0.0042915
-0.0054359
-0.0054359
-0.0060081
-0.0071526
-0.0097275
-0.0125885
-0.0163078
-0.0203133
-0.0237465
-0.0257492
-0.0277519
-0.0297546
-0.0329018
-0.036335
-0.0377655
-0.039196
-0.0409126
-0.0429154
-0.0454903
-0.0489235
-0.0512123
-0.0535011
-0.0560761
-0.0583649
-0.0600815
-0.061512
-0.0626564
-0.0638008
-0.0646591
-0.0632286
-0.0617981
-0.061512
-0.0603676
-0.0597954
-0.0589371
-0.0589371
-0.0580788
-0.0569344
-0.0552178
-0.0535011
-0.0520706
-0.0506401
-0.0486374
-0.0469208
-0.0449181
-0.0426293
-0.0409126
-0.039196
-0.0360489
-0.0340462
-0.0329018
-0.0323296
-0.0311852
-0.0308991
-0.0311852
-0.0317574
-0.0329018
-0.0337601
-0.0337601
-0.033474
-0.0331879
-0.0320435
-0.0326157
-0.0337601
-0.0337601
-0.033474
-0.0308991
-0.0248909
-0.01688
-0.0074387
0.0031471
0.0165939
0.0331879
0.0526428
0.0729561
0.0926972
0.1110077
0.1310349
0.1522064
0.1748085
0.198555
0.2217293
0.2426148
0.260067
0.2749444
0.287819
0.2986908
0.3064156
0.3107072
0.3129959
0.3141404
0.3152848
0.3172875
0.3204346
0.3227234
0.3224373
0.3201485
0.3152848
0.3089905
0.3021241
0.2938271
0.2818108
0.2689362
0.2552033
0.2411843
0.2268791
0.2114296
0.1954079
0.1793862
0.1625061
0.14534
0.1290321
0.1135826
0.0998497
0.0878334
0.0786782
0.0718117
0.0678063
0.0675202
0.0689507
0.0703812
0.0723839
0.0758171
0.0801087
0.0841141
0.0861168
0.0884056
0.08955
0.0901222
0.08955
0.0881195
0.0872612
0.0852585
0.0823975
0.0798226
0.0763893
0.0723839
0.0692368
0.066948
0.0640869
0.0600815
0.0552178
0.0520706
0.050354
0.0497818
0.0494957
0.0489235
0.0480652
0.0472069
0.0466347
0.0457764
0.044632
0.0432015
0.0409126
0.0371933
0.033474
0.0317574
0.0303269
0.0297546
0.0274658
0.0248909
0.0234604
0.022316
0.0220299
0.0220299
0.0217438
0.0205994
0.0185967
0.0160217
0.0145912
0.0148773
0.0165939
0.0174522
0.0163078
0.0151634
0.014019
0.0143051
0.0143051
0.0134468
0.0120163
0.0105858
0.0102997
0.0100136
0.0102997
0.0117302
0.0125885
0.0117302
0.0102997
0.0091553
0.0091553
0.0102997
0.0120163
0.0145912
0.0160217
0.0174522
0.0188828
0.0197411
0.0208855
0.0217438
0.0228882
0.0234604
0.0231743
0.0237465
0.0254631
0.0271797
0.0283241
0.0277519
0.0260353
0.0248909
0.0240326
0.0234604
0.0234604
0.0237465
0.0243187
0.0260353
0.0277519
0.0297546
0.0294685
0.0294685
0.0308991
0.0317574
0.0320435
0.0331879
0.0346184
0.0366211
0.0366211
0.0357628
0.0346184
0.0337601
0.0340462
0.0354767
0.036335
0.0369072
0.0369072
0.0383377
0.0394821
0.0389099
0.039196
0.0394821
0.0394821
0.0383377
0.0374794
0.0397682
0.0426293
0.0457764
0.0489235
0.050354
0.0520706
0.0543594
0.0566483
0.0589371
0.0620842
0.0652313
0.0692368
0.0718117
0.0738144
0.0752449
0.078392
0.0812531
0.0829697
0.0841141
0.0861168
0.0884056
0.0912667
0.0932694
0.0952721
0.0969887
0.0984192
0.0995636
0.1001358
0.0989914
0.0989914
0.100708
0.1024246
0.1029968
0.1047135
0.1067162
0.109005
0.111866
0.1150131
0.1170159
0.1193047
0.1213074
0.1233101
0.1255989
0.1273155
0.128746
0.1298905
0.131321
0.1327515
0.1347542
0.1373291
0.1381874
0.1396179
0.1416207
0.1419068
0.1419068
0.1427651
0.1433373
0.1439095
0.1441956
0.1439095
0.1441956
0.1450539
0.1467705
0.1479149
0.1476288
0.1476288
0.1467705
0.1461983
0.1447678
0.1430512
0.142479
0.1407623
0.1390457
0.1381874
0.1364708
0.1353264
0.1350403
0.134182
0.1327515
0.1310349
0.128746
0.125885
0.1215935
0.1187325
0.1161575
0.1135826
0.1110077
0.1075745
0.1055718
0.1041413
0.1021385
0.1004219
0.0981331
0.0946999
0.0901222
0.0855446
0.0818253
0.078392
0.0749588
0.0712395
0.0675202
0.0646591
0.0617981
0.058651
0.0560761
0.0526428
0.0477791
0.0434876
0.0389099
0.0340462
0.0300408
0.0266075
0.0228882
0.0185967
0.0143051
0.0108719
0.0077248
0.002861
-0.0022888
-0.0077248
-0.0125885
-0.0180245
-0.0217438
-0.0237465
-0.0268936
-0.0300408
-0.0343323
-0.039196
-0.0432015
-0.0463486
-0.0509262
-0.0560761
-0.0603676
-0.0626564
-0.0638008
-0.0652313
-0.0666618
-0.0689507
-0.0718117
-0.0752449
-0.078392
-0.0798226
-0.0815392
-0.0826836
-0.0841141
-0.0864029
-0.0886917
-0.0898361
-0.0906944
-0.0935555
-0.0967026
-0.0989914
-0.1004219
-0.103569
-0.1055718
-0.106144
-0.106144
-0.1075745
-0.1092911
-0.1107216
-0.1112938
-0.1115799
-0.1107216
-0.1104355
-0.1101494
-0.1098633
-0.1075745
-0.106144
-0.1070023
-0.1075745
-0.1058579
-0.103569
-0.1021385
-0.1021385
-0.1012802
-0.1004219
-0.0995636
-0.0987053
-0.097847
-0.097847
-0.0992775
-0.100708
-0.1015663
-0.1029968
-0.1029968
-0.1009941
-0.0995636
-0.0992775
-0.0989914
-0.0981331
-0.0972748
-0.0975609
-0.0987053
-0.0998497
-0.1012802
-0.1027107
-0.1027107
-0.1012802
-0.1001358
-0.0998497
-0.0989914
-0.0984192
-0.0972748
-0.0967026
-0.0958443
-0.0938416
-0.0932694
-0.0924111
-0.0898361
-0.0864029
-0.083828
-0.0821114
-0.0812531
-0.080967
-0.080967
-0.0801087
-0.0781059
-0.0775337
-0.0781059
-0.0795365
-0.0803948
-0.080967
-0.0818253
-0.080967
-0.0778198
-0.0761032
-0.0752449
-0.0746727
-0.0738144
-0.0720978
-0.0718117
-0.0712395
-0.0712395
-0.0720978
-0.0715256
-0.0686646
-0.0660896
-0.0638008
-0.061512
-0.0589371
-0.0577927
-0.0580788
-0.0583649
-0.0572205
-0.0549317
-0.0535011
-0.0529289
-0.0520706
-0.0520706
-0.0514984
-0.0509262
-0.0520706
-0.0537872
-0.0537872
-0.0523567
-0.0509262
-0.0492096
-0.0480652
-0.0469208
-0.0466347
-0.047493
-0.0483513
-0.0486374
-0.047493
-0.0452042
-0.0429154
-0.0406265
-0.0383377
-0.0357628
-0.0349045
-0.0343323
-0.0343323
-0.0349045
-0.0351906
-0.0354767
-0.0360489
-0.0357628
-0.0349045
-0.0346184
-0.0343323
-0.0357628
-0.0380516
-0.0400543
-0.042057
-0.0440598
-0.0443459
-0.0434876
-0.0434876
-0.0437737
-0.0434876
-0.0429154
-0.0423431
-0.0426293
-0.0429154
-0.0440598
-0.0454903
-0.0460625
-0.0454903
-0.0454903
-0.0463486
-0.047493
-0.0477791
-0.0477791
-0.0483513
-0.0483513
-0.0483513
-0.0483513
-0.0486374
-0.0483513
-0.047493
-0.0469208
-0.0469208
-0.0466347
-0.047493
-0.0483513
-0.0489235
-0.0489235
-0.0483513
-0.0480652
-0.0489235
-0.0497818
-0.0500679
-0.0500679
-0.0497818
-0.0506401
-0.0517845
-0.0517845
-0.0506401
-0.0506401
-0.0509262
-0.0517845
-0.0535011
-0.0546456
-0.0555039
-0.05579
-0.0555039
-0.0543594
-0.0526428
-0.0514984
-0.0506401
-0.0492096
-0.0480652
-0.0469208
-0.047493
-0.0483513
-0.0480652
-0.0483513
-0.0486374
-0.0489235
-0.0492096
-0.0494957
-0.0506401
-0.0514984
-0.0529289
-0.0549317
-0.0572205
-0.058651
-0.0606537
-0.0617981
-0.0620842
-0.0623703
-0.0635147
-0.0640869
-0.0629425
-0.0620842
-0.061512
-0.0617981
-0.061512
-0.0603676
-0.0595093
-0.0575066
-0.0552178
-0.0523567
-0.0500679
-0.047493
-0.0457764
-0.044632
-0.0434876
-0.0434876
-0.0449181
-0.0466347
-0.0477791
-0.0486374
-0.0483513
-0.0480652
-0.0483513
-0.0492096
-0.0517845
-0.0540733
-0.0555039
-0.0560761
-0.05579
-0.0555039
-0.0563622
-0.0575066
-0.0577927
-0.0572205
-0.0577927
-0.0592232
-0.0606537
-0.0617981
-0.0617981
-0.0620842
-0.061512
-0.0606537
-0.0600815
-0.0595093
-0.058651
-0.058651
-0.0592232
-0.0589371
-0.0572205
-0.0563622
-0.0575066
-0.0580788
-0.0569344
-0.05579
-0.0549317
-0.0546456
-0.0543594
-0.0543594
-0.0540733
-0.0529289
-0.0520706
-0.0535011
-0.0552178
-0.05579
-0.0566483
-0.0589371
-0.0595093
-0.0583649
-0.0580788
-0.0583649
-0.0583649
-0.0577927
-0.0575066
-0.0575066
-0.0575066
-0.0572205
-0.0566483
-0.05579
-0.0537872
-0.0523567
-0.0520706
-0.0523567
-0.0523567
-0.0529289
-0.0537872
-0.0537872
-0.053215
-0.053215
-0.0537872
-0.0540733
-0.0535011
-0.0529289
-0.0523567
-0.0512123
-0.050354
-0.050354
-0.0509262
-0.050354
-0.0489235
-0.0483513
-0.0477791
-0.0483513
-0.0494957
-0.0509262
-0.0512123
-0.0512123
-0.0523567
-0.0526428
-0.0517845
-0.0512123
-0.0526428
-0.0535011
-0.0546456
-0.0546456
-0.0552178
-0.0563622
-0.0572205
-0.058651
-0.0595093
-0.0589371
-0.0575066
-0.0569344
-0.0572205
-0.0566483
-0.0563622
-0.0563622
-0.0566483
-0.0560761
-0.0560761
-0.0549317
-0.0537872
-0.0529289
-0.0523567
-0.0520706
-0.0509262
-0.0486374
-0.0483513
-0.0494957
-0.050354
-0.0497818
-0.0480652
-0.0457764
-0.0443459
-0.0426293
-0.0417709
-0.0411987
-0.0411987
-0.0417709
-0.0429154
-0.0437737
-0.0432015
-0.0437737
-0.044632
-0.0443459
-0.0432015
-0.042057
-0.0406265
-0.0400543
-0.0403404
-0.0403404
-0.0400543
-0.0386238
-0.0366211
-0.0349045
-0.0331879
-0.030613
-0.0271797
-0.0257492
-0.0243187
-0.0237465
-0.0228882
-0.0226021
-0.0211716
-0.0200272
-0.0191689
-0.0185967
-0.0180245
-0.0160217
-0.0143051
-0.0102997
-0.0065804
-0.0042915
-0.0034332
-0.0045776
-0.0060081
-0.0080109
-0.0097275
-0.0100136
-0.0094414
-0.0102997
-0.0125885
-0.0151634
-0.0171661
-0.0180245
-0.0208855
-0.0243187
-0.0297546
-0.0349045
-0.0371933
-0.0386238
-0.0397682
-0.0400543
-0.0394821
-0.0400543
-0.0411987
-0.0409126
-0.0377655
-0.0340462
-0.0308991
-0.0266075
-0.0228882
-0.0183106
-0.0131607
-0.008297
-0.0048637
-0.0040054
-0.002861
-0.0014305
0
0.0008583
0.0022888
0.002861
0.0025749
0
-0.0014305
-0.0008583
-0.0017166
-0.0022888
-0.0045776
-0.0080109
-0.0102997
-0.0131607
-0.0160217
-0.0200272
-0.0240326
-0.0288963
-0.0331879
-0.0369072
-0.039196
-0.0417709
-0.0437737
-0.0452042
-0.0477791
-0.0492096
-0.0512123
-0.0514984
-0.0520706
-0.0537872
-0.0555039
-0.0566483
-0.0569344
-0.0566483
-0.0560761
-0.0540733
-0.0514984
-0.0492096
-0.0472069
-0.0457764
-0.0454903
-0.0443459
-0.0449181
-0.0452042
-0.0449181
-0.0434876
-0.0423431
-0.0417709
-0.0414848
-0.0417709
-0.0423431
-0.042057
-0.0429154
-0.0443459
-0.0460625
-0.047493
-0.0477791
-0.0469208
-0.0469208
-0.0460625
-0.0454903
-0.0466347
-0.0489235
-0.0497818
-0.0492096
-0.047493
-0.0466347
-0.0463486
-0.0463486
-0.0463486
-0.0457764
-0.0437737
-0.042057
-0.0409126
-0.039196
-0.0377655
-0.036335
-0.033474
-0.028038
-0.0208855
-0.0128746
-0.0020027
0.0100136
0.0248909
0.0426293
0.0620842
0.0821114
0.1015663
0.1213074
0.142479
0.165081
0.1882553
0.2114296
0.2337456
0.2532006
0.2703667
0.2846718
0.2969742
0.3072739
0.3149987
0.3204346
0.3230095
0.324154
0.3250123
0.3281594
0.3310204
0.3315926
0.3313065
0.3287316
0.32444
0.3184319
0.3107072
0.3001213
0.2875329
0.2735139
0.2580643
0.243187
0.2285958
0.2145768
0.2005577
0.1853943
0.167656
0.1502037
0.134182
0.1193047
0.1067162
0.0964165
0.0881195
0.0821114
0.0801087
0.0812531
0.0835419
0.0849724
0.0858307
0.086689
0.0886917
0.0906944
0.0941277
0.0967026
0.0972748
0.0975609
0.0972748
0.0958443
0.0941277
0.092125
0.0898361
0.086689
0.0815392
0.0769615
0.0723839
0.0678063
0.0638008
0.0595093
0.0552178
0.050354
0.0469208
0.0440598
0.0406265
0.0369072
0.0331879
0.0300408
0.0268936
0.0248909
0.0231743
0.0220299
0.019455
0.0183106
0.0177383
0.0163078
0.0151634
0.014019
0.0137329
0.0128746
0.0123024
0.0128746
0.0137329
0.0128746
0.0114441
0.0102997
0.0088692
0.0074387
0.0074387
0.0071526
0.0062943
0.0054359
0.0048637
0.0045776
0.005722
0.0065804
0.0060081
0.0068665
0.008297
0.0091553
0.0097275
0.0108719
0.0120163
0.0134468
0.014019
0.0137329
0.0134468
0.0137329
0.0145912
0.014019
0.0131607
0.0123024
0.0120163
0.014019
0.0157356
0.0165939
0.0174522
0.0185967
0.0191689
0.019455
0.0180245
0.0174522
0.0177383
0.0188828
0.0191689
0.0200272
0.022316
0.0243187
0.025177
0.0257492
0.0266075
0.0268936
0.0271797
0.0286102
0.030613
0.0317574
0.0337601
0.036335
0.0371933
0.0360489
0.0349045
0.0346184
0.0343323
0.0340462
0.0354767
0.036335
0.0374794
0.0374794
0.0380516
0.0383377
0.0377655
0.0386238
0.0403404
0.0411987
0.0417709
0.042057
0.0429154
0.0454903
0.0480652
0.0506401
0.0526428
0.0540733
0.0566483
0.058651
0.0620842
0.0646591
0.0666618
0.0680924
0.0680924
0.0675202
0.0675202
0.0678063
0.0686646
0.0712395
0.0729561
0.0743866
0.0758171
0.0775337
0.0792504
0.0812531
0.0841141
0.0861168
0.0881195
0.0898361
0.092125
0.094986
0.0975609
0.1004219
0.103569
0.1072884
0.1095772
0.1098633
0.1107216
0.111866
0.1124382
0.1130104
0.1144409
0.1161575
0.1170159
0.1184464
0.1207352
0.1218796
0.1227379
0.1247406
0.1255989
0.1261711
0.125885
0.1261711
0.1278878
0.1290321
0.1304627
0.1327515
0.1333237
0.1327515
0.1333237
0.1350403
0.137043
0.1381874
0.1401902
0.1416207
0.1419068
0.1416207
0.1419068
0.1421929
0.1419068
0.1404762
0.1390457
0.1379013
0.1358986
0.1350403
0.1353264
0.1347542
0.1336098
0.1316071
0.1298905
0.1281739
0.1261711
0.1244545
0.1221657
0.1181603
0.1158715
0.1138687
0.1121521
0.1107216
0.1092911
0.1081467
0.1058579
0.1024246
0.0984192
0.094986
0.0915528
0.0881195
0.0849724
0.0812531
0.0775337
0.0743866
0.0712395
0.0675202
0.0632286
0.0595093
0.0572205
0.0546456
0.0514984
0.0477791
0.0449181
0.0417709
0.0377655
0.0351906
0.0326157
0.0294685
0.0257492
0.0220299
0.0177383
0.0143051
0.0105858
0.0068665
0.0034332
-0.0017166
-0.0071526
-0.0114441
-0.0145912
-0.0183106
-0.022316
-0.0254631
-0.0291824
-0.0326157
-0.0354767
-0.0377655
-0.0409126
-0.0437737
-0.0466347
-0.050354
-0.0540733
-0.0575066
-0.0600815
-0.0617981
-0.0632286
-0.0646591
-0.066948
-0.0695229
-0.0715256
-0.0735283
-0.075531
-0.0781059
-0.0803948
-0.080967
-0.0818253
-0.0821114
-0.080967
-0.0801087
-0.0795365
-0.0789642
-0.0801087
-0.0815392
-0.0826836
-0.0823975
-0.0815392
-0.0821114
-0.0832558
-0.0849724
-0.0872612
-0.0884056
-0.0886917
-0.0892639
-0.0904083
-0.0929833
-0.094986
-0.0961304
-0.0975609
-0.0995636
-0.1012802
-0.1018524
-0.1021385
-0.1027107
-0.103569
-0.1041413
-0.1044274
-0.1041413
-0.1032829
-0.1041413
-0.1047135
-0.1058579
-0.1055718
-0.1052857
-0.1058579
-0.1064301
-0.1058579
-0.1052857
-0.1052857
-0.1044274
-0.1038551
-0.1027107
-0.100708
-0.0987053
-0.097847
-0.0975609
-0.0972748
-0.0984192
-0.0992775
-0.1001358
-0.100708
-0.0992775
-0.097847
-0.0967026
-0.0952721
-0.0941277
-0.0932694
-0.0918389
-0.0901222
-0.0889778
-0.0886917
-0.0875473
-0.0864029
-0.0846863
-0.0823975
-0.0798226
-0.0769615
-0.075531
-0.0746727
-0.0732422
-0.0720978
-0.0718117
-0.0709534
-0.0689507
-0.0680924
-0.0686646
-0.0678063
-0.0652313
-0.0638008
-0.0620842
-0.0612259
-0.0606537
-0.0603676
-0.0612259
-0.0612259
-0.0620842
-0.0626564
-0.0626564
-0.0620842
-0.0612259
-0.0606537
-0.0600815
-0.0595093
-0.0612259
-0.0623703
-0.0626564
-0.0640869
-0.0655174
-0.0672341
-0.0678063
-0.0660896
-0.0638008
-0.0623703
-0.0612259
-0.0606537
-0.0600815
-0.0595093
-0.058651
-0.0569344
-0.0552178
-0.0535011
-0.0529289
-0.0529289
-0.0523567
-0.0509262
-0.0497818
-0.0494957
-0.0509262
-0.0540733
-0.0560761
-0.0569344
-0.0563622
-0.0543594
-0.0529289
-0.0523567
-0.0526428
-0.0526428
-0.0514984
-0.0494957
-0.0483513
-0.0483513
-0.0486374
-0.0492096
-0.0492096
-0.0480652
-0.0452042
-0.0423431
-0.0400543
-0.0380516
-0.0360489
-0.0357628
-0.0360489
-0.0357628
-0.0357628
-0.0360489
-0.0377655
-0.0409126
-0.0429154
-0.0452042
-0.0466347
-0.0466347
-0.0463486
-0.0463486
-0.0466347
-0.0466347
-0.0483513
-0.0514984
-0.0520706
-0.0514984
-0.0509262
-0.0514984
-0.0529289
-0.0529289
-0.0529289
-0.0537872
-0.0529289
-0.0523567
-0.0526428
-0.0535011
-0.0546456
-0.0563622
-0.0577927
-0.0580788
-0.0572205
-0.0569344
-0.0575066
-0.0592232
-0.0603676
-0.0600815
-0.0606537
-0.0609398
-0.0606537
-0.061512
-0.0617981
-0.0617981
-0.0629425
-0.0640869
-0.0635147
-0.0626564
-0.0612259
-0.0600815
-0.0600815
-0.0595093
-0.0575066
-0.0555039
-0.0546456
-0.0540733
-0.0537872
-0.0529289
-0.0526428
-0.0517845
-0.050354
-0.0483513
-0.0463486
-0.0449181
-0.0440598
-0.0443459
-0.0434876
-0.042057
-0.042057
-0.0429154
-0.044632
-0.0452042
-0.0449181
-0.0454903
-0.0449181
-0.0454903
-0.0466347
-0.0477791
-0.0497818
-0.0506401
-0.050354
-0.0494957
-0.0483513
-0.0489235
-0.0494957
-0.0497818
-0.0497818
-0.0486374
-0.0489235
-0.0489235
-0.0480652
-0.0486374
-0.0480652
-0.0469208
-0.0469208
-0.0454903
-0.0440598
-0.0437737
-0.0429154
-0.0417709
-0.0406265
-0.0411987
-0.0417709
-0.0414848
-0.0409126
-0.0414848
-0.0440598
-0.0463486
-0.0480652
-0.0494957
-0.0514984
-0.0526428
-0.0537872
-0.0546456
-0.0555039
-0.05579
-0.0560761
-0.0552178
-0.0543594
-0.0535011
-0.0540733
-0.05579
-0.0555039
-0.0535011
-0.0520706
-0.050354
-0.0483513
-0.0469208
-0.0454903
-0.0432015
-0.0417709
-0.0406265
-0.0397682
-0.0394821
-0.039196
-0.0383377
-0.0377655
-0.0371933
-0.0374794
-0.039196
-0.0414848
-0.0432015
-0.0443459
-0.0460625
-0.047493
-0.0480652
-0.0489235
-0.0486374
-0.0477791
-0.0472069
-0.047493
-0.0477791
-0.0477791
-0.0480652
-0.0483513
-0.0486374
-0.0480652
-0.0472069
-0.0472069
-0.0472069
-0.0469208
-0.0454903
-0.0437737
-0.0434876
-0.0432015
-0.0434876
-0.0429154
-0.0417709
-0.0417709
-0.042057
-0.0426293
-0.0437737
-0.044632
-0.0452042
-0.0460625
-0.0466347
-0.0469208
-0.0463486
-0.0472069
-0.0492096
-0.0500679
-0.0512123
-0.0523567
-0.0512123
-0.0500679
-0.0492096
-0.0489235
-0.0477791
-0.0466347
-0.0457764
-0.0443459
-0.0423431
-0.0397682
-0.0366211
-0.0351906
-0.0337601
-0.0320435
-0.0311852
-0.0297546
-0.0274658
-0.0268936
-0.028038
-0.0286102
-0.0288963
-0.0297546
-0.030613
-0.0314713
-0.0323296
-0.033474
-0.0343323
-0.0349045
-0.0351906
-0.0349045
-0.0331879
-0.0303269
-0.0288963
-0.0274658
-0.025177
-0.0228882
-0.0205994
-0.0185967
-0.0165939
-0.0148773
-0.0128746
-0.0117302
-0.011158
-0.0102997
-0.0100136
-0.0097275
-0.0080109
-0.0062943
-0.0042915
-0.0014305
-0.0002861
-0.0008583
-0.0025749
-0.0040054
-0.0051498
-0.0065804
-0.0068665
-0.0068665
-0.0062943
-0.0054359
-0.0054359
-0.005722
-0.0060081
-0.0065804
-0.0074387
-0.0088692
-0.0123024
-0.0148773
-0.0165939
-0.01688
-0.0174522
-0.019455
-0.0217438
-0.0243187
-0.0260353
-0.0268936
-0.0266075
-0.0254631
-0.025177
-0.0246048
-0.0228882
-0.0214577
-0.0191689
-0.0151634
-0.0114441
-0.0085831
-0.0060081
-0.002861
0.0005722
0.0045776
0.0088692
0.0125885
0.0143051
0.0160217
0.0165939
0.0183106
0.0203133
0.0214577
0.0226021
0.0228882
0.0226021
0.0220299
0.0211716
0.0191689
0.0163078
0.0134468
0.0105858
0.0071526
0.002861
-0.0002861
-0.0045776
-0.0080109
-0.0105858
-0.0137329
-0.01688
-0.0205994
-0.0234604
-0.0248909
-0.0266075
-0.0286102
-0.0303269
-0.0323296
-0.033474
-0.0349045
-0.0366211
-0.0371933
-0.0377655
-0.0386238
-0.0394821
-0.0406265
-0.042057
-0.0429154
-0.0434876
-0.0440598
-0.0454903
-0.0469208
-0.0472069
-0.0466347
-0.0472069
-0.0480652
-0.0480652
-0.0472069
-0.0477791
-0.0469208
-0.0454903
-0.044632
-0.0434876
-0.0411987
-0.039196
-0.036335
-0.033474
-0.0311852
-0.0291824
-0.028038
-0.0277519
-0.0266075
-0.0260353
-0.0266075
-0.0274658
-0.0274658
-0.0263214
-0.0257492
-0.025177
-0.0246048
-0.0231743
-0.0208855
-0.019455
-0.0191689
-0.0191689
-0.0180245
-0.0151634
-0.0114441
-0.0068665
-0.0008583
0.0071526
0.0183106
0.0311852
0.0457764
0.0609398
0.0772476
0.0946999
0.1121521
0.1281739
0.1450539
0.1627922
0.1805306
0.198555
0.2160073
0.2314568
0.2451897
0.257206
0.2689362
0.2772332
0.2829552
0.2866745
0.2898217
0.2926827
0.2955437
0.2984048
0.3024102
0.3067017
0.3089905
0.3098488
0.3081322
0.3052712
0.3021241
0.2969742
0.2883912
0.2763749
0.262928
0.2497673
0.2371788
0.2254486
0.2140045
0.2008438
0.1865387
0.1719475
0.1579285
0.14534
0.1336098
0.1244545
0.1161575
0.1078606
0.1029968
0.1012802
0.1018524
0.1044274
0.106144
0.1058579
0.1041413
0.1009941
0.0989914
0.0969887
0.0952721
0.0926972
0.0892639
0.0858307
0.0818253
0.0761032
0.069809
0.0640869
0.0589371
0.0537872
0.0483513
0.0432015
0.039196
0.0366211
0.0346184
0.0340462
0.033474
0.0323296
0.0308991
0.0291824
0.0266075
0.0228882
0.0211716
0.019455
0.0174522
0.0160217
0.014019
0.0120163
0.0105858
0.0091553
0.0080109
0.0077248
0.0062943
0.0054359
0.0040054
0.0017166
-0.0002861
-0.0011444
-0.0017166
-0.0020027
-0.0020027
-0.0020027
-0.002861
-0.0034332
-0.0037193
-0.0034332
-0.0031471
-0.0022888
-0.0020027
-0.0011444
-0.0014305
-0.0014305
-0.0005722
-0.0005722
-0.0008583
-0.0014305
-0.0022888
-0.002861
-0.0040054
-0.0054359
-0.0060081
-0.0065804
-0.0068665
-0.0077248
-0.0091553
-0.0088692
-0.0077248
-0.0074387
-0.0077248
-0.0068665
-0.0054359
-0.0025749
-0.0014305
-0.0008583
-0.0008583
0
0.0002861
0
-0.0008583
-0.0014305
-0.0005722
0.0014305
0.002861
0.002861
0.0034332
0.0048637
0.0048637
0.0048637
0.0042915
0.0040054
0.0037193
0.0040054
0.005722
0.0080109
0.0108719
0.0128746
0.0143051
0.0160217
0.01688
0.0177383
0.0191689
0.0200272
0.0208855
0.0226021
0.025177
0.0271797
0.0291824
0.0308991
0.0320435
0.0314713
0.0308991
0.0314713
0.0331879
0.0343323
0.0349045
0.0369072
0.0389099
0.0414848
0.0449181
0.0477791
0.0489235
0.0486374
0.0477791
0.0469208
0.047493
0.0489235
0.0514984
0.0535011
0.0543594
0.0552178
0.0589371
0.0632286
0.0655174
0.0660896
0.0655174
0.0658035
0.0666618
0.0672341
0.0683785
0.0706673
0.0729561
0.0746727
0.0758171
0.0778198
0.0806809
0.0835419
0.0858307
0.0858307
0.0858307
0.0872612
0.0912667
0.094986
0.0955582
0.0958443
0.0975609
0.0992775
0.0992775
0.1009941
0.1032829
0.1044274
0.1041413
0.1038551
0.1047135
0.1070023
0.1098633
0.1132965
0.1161575
0.1167298
0.1184464
0.1215935
0.123024
0.1238823
0.1247406
0.1261711
0.125885
0.1247406
0.1255989
0.1264572
0.1264572
0.1261711
0.125885
0.1247406
0.1233101
0.1218796
0.1210213
0.1195908
0.1187325
0.1190186
0.1181603
0.1167298
0.1155853
0.1135826
0.1110077
0.1095772
0.1081467
0.1064301
0.1052857
0.1049996
0.1041413
0.1024246
0.1012802
0.1001358
0.0969887
0.0938416
0.0904083
0.0872612
0.0835419
0.078392
0.0749588
0.0720978
0.0672341
0.061512
0.0575066
0.0535011
0.0500679
0.0480652
0.0457764
0.042057
0.0377655
0.0326157
0.0268936
0.022316
0.0185967
0.0148773
0.0123024
0.0097275
0.0062943
0.0031471
0.0002861
-0.0031471
-0.008297
-0.014019
-0.019455
-0.0237465
-0.0268936
-0.0297546
-0.030613
-0.030613
-0.0340462
-0.0377655
-0.0400543
-0.0437737
-0.047493
-0.0509262
-0.0540733
-0.0563622
-0.0577927
-0.0580788
-0.0575066
-0.0577927
-0.0592232
-0.061512
-0.064373
-0.0680924
-0.0723839
-0.0749588
-0.0772476
-0.080967
-0.083828
-0.0861168
-0.0878334
-0.0898361
-0.0901222
-0.08955
-0.08955
-0.0904083
-0.0909805
-0.0909805
-0.0901222
-0.08955
-0.0886917
-0.0881195
-0.0881195
-0.0881195
-0.0884056
-0.0892639
-0.08955
-0.08955
-0.0898361
-0.0904083
-0.0906944
-0.0909805
-0.0906944
-0.0904083
-0.0909805
-0.0918389
-0.0932694
-0.0941277
-0.0944138
-0.094986
-0.0961304
-0.0975609
-0.097847
-0.0981331
-0.0992775
-0.1009941
-0.1027107
-0.103569
-0.1038551
-0.1038551
-0.1041413
-0.1044274
-0.1049996
-0.1055718
-0.1070023
-0.109005
-0.1101494
-0.1104355
-0.1092911
-0.1084328
-0.1067162
-0.1041413
-0.1018524
-0.1009941
-0.1009941
-0.100708
-0.100708
-0.1012802
-0.1015663
-0.0998497
-0.0981331
-0.0972748
-0.0967026
-0.0964165
-0.0967026
-0.0967026
-0.0958443
-0.0955582
-0.0964165
-0.0955582
-0.0932694
-0.0909805
-0.0889778
-0.0872612
-0.0849724
-0.0806809
-0.0786782
-0.0781059
-0.0766754
-0.0746727
-0.0743866
-0.0732422
-0.0712395
-0.0706673
-0.0715256
-0.0712395
-0.0700951
-0.0686646
-0.0678063
-0.0675202
-0.0666618
-0.0663758
-0.0678063
-0.0686646
-0.0678063
-0.0678063
-0.0683785
-0.0680924
-0.0683785
-0.0689507
-0.0689507
-0.0680924
-0.0678063
-0.0683785
-0.0692368
-0.0678063
-0.0663758
-0.0649452
-0.0638008
-0.0638008
-0.0638008
-0.0632286
-0.0626564
-0.0617981
-0.0609398
-0.0597954
-0.0597954
-0.0600815
-0.0606537
-0.0603676
-0.0600815
-0.0595093
-0.0580788
-0.05579
-0.0546456
-0.0537872
-0.0523567
-0.0512123
-0.0514984
-0.0509262
-0.0497818
-0.0472069
-0.0457764
-0.044632
-0.0440598
-0.0440598
-0.0432015
-0.0409126
-0.0394821
-0.0394821
-0.0397682
-0.0400543
-0.039196
-0.0389099
-0.0394821
-0.0403404
-0.0426293
-0.0449181
-0.0480652
-0.0497818
-0.0506401
-0.0514984
-0.0512123
-0.0509262
-0.0517845
-0.0517845
-0.0523567
-0.0526428
-0.0523567
-0.0520706
-0.0517845
-0.0517845
-0.0509262
-0.050354
-0.050354
-0.0489235
-0.0472069
-0.0457764
-0.0440598
-0.042057
-0.0414848
-0.0394821
-0.0366211
-0.0349045
-0.0343323
-0.0326157
-0.0320435
-0.0323296
-0.0323296
-0.0331879
-0.0331879
-0.0329018
-0.0340462
-0.0354767
-0.0360489
-0.0366211
-0.0374794
-0.0369072
-0.0383377
-0.0400543
-0.0409126
-0.0411987
-0.0434876
-0.0460625
-0.0486374
-0.0509262
-0.0512123
-0.0523567
-0.0537872
-0.0552178
-0.0566483
-0.058651
-0.0606537
-0.0623703
-0.0629425
-0.0626564
-0.0629425
-0.0638008
-0.0652313
-0.0660896
-0.0660896
-0.0660896
-0.0663758
-0.0678063
-0.0695229
-0.0706673
-0.0715256
-0.0723839
-0.0741005
-0.0741005
-0.0720978
-0.0709534
-0.0709534
-0.0712395
-0.0712395
-0.0706673
-0.0695229
-0.0689507
-0.0680924
-0.0680924
-0.0683785
-0.0686646
-0.0686646
-0.0683785
-0.0672341
-0.0658035
-0.0646591
-0.0640869
-0.0635147
-0.0620842
-0.0612259
-0.0612259
-0.0620842
-0.0640869
-0.0663758
-0.0689507
-0.069809
-0.0692368
-0.0675202
-0.0663758
-0.0660896
-0.0663758
-0.0660896
-0.0663758
-0.066948
-0.066948
-0.0666618
-0.0660896
-0.0646591
-0.0629425
-0.061512
-0.0609398
-0.0603676
-0.0606537
-0.0612259
-0.0632286
-0.0649452
-0.0660896
-0.0672341
-0.0678063
-0.0663758
-0.0652313
-0.0649452
-0.0646591
-0.0640869
-0.0635147
-0.0626564
-0.0609398
-0.0589371
-0.0580788
-0.0569344
-0.0552178
-0.0529289
-0.0512123
-0.0497818
-0.0477791
-0.0460625
-0.044632
-0.0437737
-0.0432015
-0.0434876
-0.0440598
-0.0440598
-0.0452042
-0.0469208
-0.0492096
-0.050354
-0.0512123
-0.0523567
-0.053215
-0.0540733
-0.0552178
-0.0569344
-0.0577927
-0.0589371
-0.0589371
-0.0597954
-0.0603676
-0.0603676
-0.0617981
-0.0629425
-0.0635147
-0.0640869
-0.0649452
-0.066948
-0.0692368
-0.0709534
-0.0712395
-0.0712395
-0.0709534
-0.0712395
-0.0720978
-0.0723839
-0.0709534
-0.0683785
-0.0660896
-0.0638008
-0.0612259
-0.0592232
-0.0575066
-0.0549317
-0.0517845
-0.0477791
-0.0443459
-0.0423431
-0.0403404
-0.0371933
-0.0346184
-0.0317574
-0.0288963
-0.0243187
-0.0214577
-0.0205994
-0.0203133
-0.0208855
-0.0211716
-0.0205994
-0.0197411
-0.0183106
-0.0183106
-0.0177383
-0.0160217
-0.0148773
-0.0134468
-0.0117302
-0.0102997
-0.0100136
-0.011158
-0.0117302
-0.011158
-0.0117302
-0.0125885
-0.0143051
-0.0165939
-0.0203133
-0.0260353
-0.0314713
-0.0366211
-0.0409126
-0.0443459
-0.047493
-0.0500679
-0.0509262
-0.0512123
-0.0523567
-0.0535011
-0.0537872
-0.053215
-0.0517845
-0.0500679
-0.0472069
-0.0434876
-0.0389099
-0.0331879
-0.0286102
-0.025177
-0.0208855
-0.0165939
-0.0120163
-0.0085831
-0.0065804
-0.005722
-0.0048637
-0.0034332
-0.002861
-0.0034332
-0.0034332
-0.0045776
-0.0062943
-0.0080109
-0.0108719
-0.0137329
-0.0154495
-0.01688
-0.0197411
-0.0228882
-0.0260353
-0.0288963
-0.030613
-0.0329018
-0.0380516
-0.042057
-0.0449181
-0.0469208
-0.0483513
-0.0509262
-0.0523567
-0.053215
-0.0540733
-0.0549317
-0.0575066
-0.058651
-0.0592232
-0.0592232
-0.0589371
-0.0597954
-0.0597954
-0.0577927
-0.0560761
-0.05579
-0.0575066
-0.0595093
-0.0595093
-0.0589371
-0.0595093
-0.0600815
-0.0600815
-0.0580788
-0.05579
-0.0543594
-0.053215
-0.0529289
-0.0526428
-0.0535011
-0.0546456
-0.0549317
-0.0543594
-0.053215
-0.0514984
-0.050354
-0.0506401
-0.0506401
-0.0500679
-0.0500679
-0.050354
-0.0509262
-0.050354
-0.0500679
-0.0509262
-0.0514984
-0.0512123
-0.0514984
-0.0523567
-0.0526428
-0.0526428
-0.0529289
-0.0529289
-0.050354
-0.0443459
-0.0371933
-0.0291824
-0.0203133
-0.0100136
0.0017166
0.0148773
0.0308991
0.0494957
0.0686646
0.0881195
0.1075745
0.1261711
0.14534
0.1662255
0.1853943
0.2025605
0.2174378
0.2317429
0.2457619
0.2589226
0.2703667
0.2800942
0.2869607
0.2912522
0.2941132
0.2961159
0.2975464
0.2992631
0.3009796
0.301838
0.3006936
0.2995491
0.2958298
0.2903939
0.2829552
0.2717972
0.2589226
0.2454758
0.2305985
0.2165795
0.2025605
0.1865387
0.1693726
0.1513481
0.134182
0.117302
0.1018524
0.0878334
0.0758171
0.0660896
0.0592232
0.0552178
0.0543594
0.0555039
0.0569344
0.058651
0.0589371
0.0589371
0.0597954
0.0606537
0.0603676
0.0589371
0.0583649
0.0566483
0.0537872
0.0497818
0.0463486
0.0437737
0.0409126
0.0377655
0.0340462
0.0303269
0.028038
0.0268936
0.0263214
0.025177
0.0248909
0.0254631
0.0257492
0.0243187
0.0234604
0.0220299
0.0211716
0.0200272
0.0180245
0.0154495
0.0128746
0.0120163
0.0117302
0.0100136
0.0077248
0.0045776
0.0002861
-0.002861
-0.0060081
-0.008297
-0.0108719
-0.0131607
-0.0143051
-0.0151634
-0.0165939
-0.0163078
-0.0163078
-0.0160217
-0.0163078
-0.0174522
-0.0185967
-0.0200272
-0.019455
-0.0174522
-0.01688
-0.0171661
-0.0171661
-0.0165939
-0.01688
-0.0171661
-0.01688
-0.0157356
-0.0151634
-0.0134468
-0.0114441
-0.0108719
-0.0097275
-0.008297
-0.008297
-0.0097275
-0.0102997
-0.0108719
-0.0105858
-0.0097275
-0.0085831
-0.0068665
-0.0060081
-0.005722
-0.0051498
-0.0040054
-0.0037193
-0.0034332
-0.002861
-0.0025749
-0.0022888
-0.0005722
0.0011444
0.002861
0.0054359
0.0071526
0.008297
0.0102997
0.0105858
0.0102997
0.0105858
0.0117302
0.0128746
0.0143051
0.0160217
0.0171661
0.0180245
0.0180245
0.0183106
0.019455
0.0188828
0.0174522
0.01688
0.0160217
0.014019
0.0137329
0.0151634
0.0174522
0.0185967
0.0188828
0.0185967
0.0185967
0.0197411
0.0208855
0.0226021
0.0237465
0.0240326
0.0254631
0.0274658
0.0286102
0.0303269
0.0317574
0.033474
0.0360489
0.0383377
0.0400543
0.0434876
0.0472069
0.0500679
0.0526428
0.0555039
0.0577927
0.0597954
0.0609398
0.0620842
0.0629425
0.0649452
0.0678063
0.0709534
0.0735283
0.0749588
0.075531
0.0766754
0.0778198
0.078392
0.0795365
0.0803948
0.0806809
0.0818253
0.083828
0.0855446
0.0852585
0.0849724
0.0861168
0.0884056
0.08955
0.0901222
0.0915528
0.0941277
0.0967026
0.0998497
0.1027107
0.1058579
0.1087189
0.1101494
0.1095772
0.1087189
0.1087189
0.1110077
0.1127243
0.1127243
0.1115799
0.1107216
0.1112938
0.111866
0.1132965
0.1144409
0.1152992
0.1152992
0.1144409
0.1127243
0.111866
0.111866
0.1112938
0.1092911
0.1067162
0.1044274
0.1021385
0.1004219
0.0987053
0.0975609
0.0972748
0.0964165
0.0952721
0.0929833
0.0906944
0.0892639
0.0881195
0.0864029
0.0835419
0.0803948
0.0775337
0.0746727
0.0729561
0.0720978
0.0700951
0.0678063
0.0652313
0.061512
0.058651
0.0566483
0.0543594
0.0509262
0.0469208
0.0434876
0.0411987
0.0394821
0.0374794
0.0343323
0.0308991
0.0268936
0.0203133
0.0171661
0.0143051
0.0108719
0.008297
0.0040054
-0.0005722
-0.0042915
-0.0077248
-0.0105858
-0.0145912
-0.0200272
-0.0257492
-0.0291824
-0.0308991
-0.0337601
-0.0360489
-0.0374794
-0.0414848
-0.0449181
-0.0472069
-0.0492096
-0.050354
-0.0523567
-0.0552178
-0.058651
-0.0626564
-0.0663758
-0.0689507
-0.0709534
-0.0741005
-0.0781059
-0.080967
-0.0832558
-0.0861168
-0.0884056
-0.0904083
-0.0926972
-0.0952721
-0.0984192
-0.0998497
-0.1009941
-0.1012802
-0.1009941
-0.1021385
-0.1038551
-0.1055718
-0.1075745
-0.109005
-0.1098633
-0.111866
-0.1132965
-0.1141548
-0.1138687
-0.1135826
-0.1141548
-0.1135826
-0.1135826
-0.1138687
-0.1130104
-0.1127243
-0.111866
-0.1110077
-0.1107216
-0.1101494
-0.1098633
-0.1098633
-0.1084328
-0.106144
-0.1038551
-0.1029968
-0.1015663
-0.0998497
-0.0989914
-0.0987053
-0.0987053
-0.100708
-0.1015663
-0.1012802
-0.1029968
-0.1047135
-0.1055718
-0.1055718
-0.1058579
-0.1072884
-0.109005
-0.1095772
-0.1087189
-0.1078606
-0.1087189
-0.1087189
-0.1084328
-0.1075745
-0.1064301
-0.1064301
-0.1075745
-0.1084328
-0.1087189
-0.109005
-0.109005
-0.109005
-0.1087189
-0.1075745
-0.1067162
-0.1055718
-0.1041413
-0.1009941
-0.0984192
-0.0969887
-0.0958443
-0.0946999
-0.0938416
-0.0926972
-0.0909805
-0.0892639
-0.0872612
-0.0852585
-0.0835419
-0.0818253
-0.0798226
-0.078392
-0.0778198
-0.0778198
-0.0772476
-0.0772476
-0.0769615
-0.0769615
-0.0778198
-0.078392
-0.078392
-0.0778198
-0.0769615
-0.075531
-0.0752449
-0.0741005
-0.0735283
-0.0738144
-0.0738144
-0.0732422
-0.0718117
-0.0703812
-0.0686646
-0.0675202
-0.0658035
-0.0632286
-0.0623703
-0.0620842
-0.0617981
-0.0626564
-0.064373
-0.0660896
-0.0666618
-0.0658035
-0.0640869
-0.0629425
-0.0620842
-0.0623703
-0.0629425
-0.0638008
-0.0640869
-0.064373
-0.0660896
-0.0660896
-0.0663758
-0.066948
-0.0658035
-0.0638008
-0.0626564
-0.0623703
-0.0612259
-0.0600815
-0.0595093
-0.0580788
-0.0566483
-0.05579
-0.0552178
-0.0540733
-0.053215
-0.0512123
-0.0497818
-0.0494957
-0.0486374
-0.0477791
-0.0469208
-0.0457764
-0.0449181
-0.044632
-0.0443459
-0.0440598
-0.0443459
-0.044632
-0.044632
-0.0454903
-0.0466347
-0.0492096
-0.0517845
-0.0549317
-0.0577927
-0.058651
-0.0592232
-0.0609398
-0.0626564
-0.0632286
-0.0629425
-0.0629425
-0.0623703
-0.061512
-0.0600815
-0.0589371
-0.0583649
-0.0595093
-0.0600815
-0.0606537
-0.0606537
-0.0600815
-0.0597954
-0.0592232
-0.058651
-0.058651
-0.0595093
-0.0597954
-0.0603676
-0.0609398
-0.0612259
-0.0623703
-0.0623703
-0.0609398
-0.0600815
-0.0592232
-0.0583649
-0.0569344
-0.05579
-0.0560761
-0.0580788
-0.0612259
-0.061512
-0.0597954
-0.0595093
-0.0597954
-0.0595093
-0.0597954
-0.0606537
-0.0620842
-0.0629425
-0.0629425
-0.0649452
-0.0672341
-0.0686646
-0.0703812
-0.0723839
-0.0741005
-0.0743866
-0.0752449
-0.0763893
-0.0758171
-0.0749588
-0.0741005
-0.0735283
-0.0746727
-0.0749588
-0.0761032
-0.0778198
-0.0781059
-0.0778198
-0.0781059
-0.0781059
-0.0766754
-0.0749588
-0.0729561
-0.0712395
-0.069809
-0.0675202
-0.0658035
-0.0649452
-0.064373
-0.0623703
-0.0620842
-0.0620842
-0.0620842
-0.0620842
-0.0623703
-0.0626564
-0.0620842
-0.0620842
-0.0617981
-0.061512
-0.0609398
-0.061512
-0.0626564
-0.0623703
-0.061512
-0.0606537
-0.0597954
-0.0595093
-0.058651
-0.0575066
-0.0566483
-0.05579
-0.0540733
-0.0526428
-0.0512123
-0.0489235
-0.0477791
-0.0472069
-0.0440598
-0.0403404
-0.0386238
-0.0383377
-0.039196
-0.0400543
-0.0394821
-0.0397682
-0.0400543
-0.0389099
-0.0383377
-0.0383377
-0.0377655
-0.039196
-0.0411987
-0.0406265
-0.0403404
-0.042057
-0.0443459
-0.0463486
-0.0469208
-0.0466347
-0.0463486
-0.0477791
-0.0489235
-0.0506401
-0.0523567
-0.0523567
-0.0526428
-0.0535011
-0.053215
-0.0523567
-0.0526428
-0.0529289
-0.053215
-0.053215
-0.0514984
-0.0500679
-0.0489235
-0.0480652
-0.0472069
-0.0460625
-0.0440598
-0.0432015
-0.0437737
-0.0449181
-0.0454903
-0.0460625
-0.0469208
-0.0469208
-0.0454903
-0.0434876
-0.042057
-0.0429154
-0.0449181
-0.0463486
-0.0483513
-0.0489235
-0.0494957
-0.0509262
-0.0512123
-0.0512123
-0.0529289
-0.0549317
-0.0560761
-0.0566483
-0.0569344
-0.058651
-0.0595093
-0.0597954
-0.0592232
-0.0580788
-0.0572205
-0.0563622
-0.0572205
-0.0583649
-0.0589371
-0.0603676
-0.0609398
-0.0597954
-0.0583649
-0.0566483
-0.0543594
-0.0523567
-0.0494957
-0.0477791
-0.0477791
-0.0483513
-0.047493
-0.0466347
-0.0454903
-0.0434876
-0.0417709
-0.0400543
-0.0383377
-0.0369072
-0.0360489
-0.0357628
-0.0357628
-0.0351906
-0.0340462
-0.0329018
-0.0311852
-0.0291824
-0.0274658
-0.028038
-0.0286102
-0.0274658
-0.0268936
-0.0263214
-0.0257492
-0.0243187
-0.0228882
-0.0217438
-0.0200272
-0.0183106
-0.0171661
-0.0165939
-0.0165939
-0.0174522
-0.0185967
-0.0203133
-0.0214577
-0.0243187
-0.0286102
-0.0329018
-0.0366211
-0.0414848
-0.047493
-0.0514984
-0.0529289
-0.053215
-0.0517845
-0.0500679
-0.0483513
-0.0466347
-0.0452042
-0.0440598
-0.0423431
-0.0394821
-0.0351906
-0.0308991
-0.0260353
-0.0214577
-0.0163078
-0.0105858
-0.0065804
-0.0042915
-0.0025749
-0.0022888
-0.0025749
-0.0022888
-0.0017166
-0.0005722
0.0008583
0.0022888
0.002861
0.0017166
-0.0002861
-0.0025749
-0.0034332
-0.0034332
-0.0045776
-0.0060081
-0.0077248
-0.0091553
-0.0114441
-0.0131607
-0.0151634
-0.0177383
-0.0205994
-0.0228882
-0.0257492
-0.0294685
-0.0323296
-0.0349045
-0.0383377
-0.0426293
-0.0463486
-0.0497818
-0.0526428
-0.0540733
-0.0552178
-0.0560761
-0.0563622
-0.0572205
-0.058651
-0.0603676
-0.0629425
-0.0632286
-0.0626564
-0.0623703
-0.0612259
-0.0595093
-0.0580788
-0.0555039
-0.0535011
-0.0520706
-0.0492096
-0.0466347
-0.0434876
-0.0411987
-0.0394821
-0.0383377
-0.0371933
-0.0357628
-0.0354767
-0.0349045
-0.0343323
-0.0349045
-0.0349045
-0.0343323
-0.0346184
-0.0346184
-0.0343323
-0.0354767
-0.036335
-0.0377655
-0.0389099
-0.0389099
-0.0386238
-0.0383377
-0.0377655
-0.0386238
-0.0400543
-0.0400543
-0.0380516
-0.0351906
-0.0314713
-0.0271797
-0.0217438
-0.0131607
-0.0011444
0.0131607
0.0303269
0.0492096
0.0683785
0.0892639
0.111866
0.1324654
0.1536369
0.1753807
0.1968384
0.2174378
0.23489
0.2503395
0.2652169
0.2792359
0.2909661
0.2995491
0.3044129
0.3069878
0.30756
0.30756
0.3061295
0.3038407
0.3021241
0.3006936
0.2984048
0.2943993
0.288105
0.2826691
0.2749444
0.2635003
0.2509117
0.2363205
0.2211571
0.206852
0.1936913
0.1811028
0.1682282
0.1547814
0.1399041
0.1241684
0.1092911
0.0964165
0.0855446
0.0761032
0.0678063
0.061512
0.0592232
0.0600815
0.0629425
0.0663758
0.0695229
0.07267
0.0752449
0.0775337
0.0798226
0.0815392
0.0832558
0.0835419
0.0818253
0.0798226
0.0781059
0.0758171
0.0741005
0.0715256
0.0678063
0.0635147
0.0606537
0.0583649
0.0566483
0.0540733
0.050354
0.0463486
0.0437737
0.0414848
0.0383377
0.0340462
0.0297546
0.0260353
0.022316
0.0188828
0.0165939
0.0145912
0.0137329
0.0125885
0.0097275
0.0048637
0.0020027
0.0002861
-0.0014305
-0.0040054
-0.0065804
-0.0077248
-0.0088692
-0.0097275
-0.0105858
-0.011158
-0.0120163
-0.0123024
-0.0117302
-0.0105858
-0.0100136
-0.008297
-0.0065804
-0.005722
-0.0051498
-0.0051498
-0.0051498
-0.0048637
-0.0040054
-0.002861
-0.0014305
-0.0008583
0
0.0005722
0.0008583
0.0008583
0.0008583
0
-0.0002861
0.0002861
0.0014305
0.0020027
0.0022888
0.002861
0.0031471
0.002861
0.002861
0.0025749
0.0031471
0.0040054
0.0062943
0.0088692
0.0108719
0.0125885
0.0148773
0.0174522
0.0188828
0.0188828
0.0197411
0.0214577
0.0228882
0.0237465
0.0248909
0.0260353
0.028038
0.0294685
0.0297546
0.0297546
0.0308991
0.0329018
0.0354767
0.0371933
0.0383377
0.0383377
0.039196
0.0406265
0.0417709
0.0432015
0.0440598
0.0449181
0.0469208
0.0480652
0.0489235
0.050354
0.0520706
0.053215
0.053215
0.0526428
0.0526428
0.0523567
0.0529289
0.0526428
0.0506401
0.0489235
0.0480652
0.0483513
0.0489235
0.0486374
0.0492096
0.0506401
0.0526428
0.0546456
0.0569344
0.0589371
0.0609398
0.0626564
0.0649452
0.0678063
0.0715256
0.075531
0.0789642
0.0815392
0.083828
0.0849724
0.0864029
0.0875473
0.0884056
0.0889778
0.0898361
0.0912667
0.0938416
0.0958443
0.0975609
0.0987053
0.0998497
0.100708
0.1012802
0.1021385
0.1029968
0.103569
0.106144
0.1075745
0.109005
0.1110077
0.1121521
0.1138687
0.1161575
0.1187325
0.1210213
0.1235962
0.1261711
0.1270294
0.1273155
0.1281739
0.12846
0.12846
0.1290321
0.12846
0.12846
0.12846
0.1290321
0.1301766
0.131321
0.1318932
0.1321793
0.1318932
0.1310349
0.1301766
0.1293183
0.1281739
0.1264572
0.1250267
0.1238823
0.1227379
0.1218796
0.1207352
0.1195908
0.1178742
0.1164437
0.1152992
0.1127243
0.1098633
0.1072884
0.1049996
0.1021385
0.0995636
0.0972748
0.0944138
0.0904083
0.0858307
0.0812531
0.0766754
0.0718117
0.0675202
0.0632286
0.0592232
0.0555039
0.0517845
0.0494957
0.0466347
0.042057
0.0371933
0.0323296
0.028038
0.0237465
0.0203133
0.0177383
0.0148773
0.0117302
0.008297
0.0045776
0.0020027
0.0002861
-0.0017166
-0.0031471
-0.0068665
-0.0102997
-0.0125885
-0.0148773
-0.0174522
-0.0211716
-0.0254631
-0.0294685
-0.033474
-0.0369072
-0.0403404
-0.0423431
-0.0434876
-0.0454903
-0.0486374
-0.0506401
-0.0535011
-0.0569344
-0.0597954
-0.0629425
-0.0649452
-0.066948
-0.0689507
-0.0703812
-0.07267
-0.0741005
-0.0746727
-0.0738144
-0.0735283
-0.0743866
-0.0743866
-0.0743866
-0.075531
-0.0758171
-0.0746727
-0.0741005
-0.0752449
-0.0772476
-0.0786782
-0.0792504
-0.0803948
-0.0801087
-0.0801087
-0.080967
-0.0832558
-0.0849724
-0.0852585
-0.0855446
-0.0861168
-0.0869751
-0.0872612
-0.0878334
-0.0889778
-0.0889778
-0.0884056
-0.0884056
-0.0886917
-0.0886917
-0.0884056
-0.0892639
-0.0904083
-0.0909805
-0.092125
-0.0929833
-0.0926972
-0.092125
-0.0906944
-0.08955
-0.0889778
-0.0884056
-0.0875473
-0.0884056
-0.0889778
-0.0892639
-0.08955
-0.0892639
-0.0889778
-0.0881195
-0.0855446
-0.0821114
-0.0792504
-0.0775337
-0.0746727
-0.0732422
-0.0741005
-0.0746727
-0.0741005
-0.0743866
-0.0743866
-0.0738144
-0.0729561
-0.0720978
-0.0720978
-0.0715256
-0.0709534
-0.0712395
-0.0729561
-0.0743866
-0.075531
-0.0763893
-0.0775337
-0.0769615
-0.0775337
-0.0789642
-0.0792504
-0.0789642
-0.0789642
-0.0798226
-0.0803948
-0.0801087
-0.0798226
-0.0801087
-0.0792504
-0.0775337
-0.0749588
-0.0720978
-0.0703812
-0.0680924
-0.0666618
-0.064373
-0.0623703
-0.0620842
-0.0620842
-0.061512
-0.0597954
-0.0577927
-0.0569344
-0.0566483
-0.0555039
-0.0549317
-0.0540733
-0.0535011
-0.0537872
-0.0537872
-0.0540733
-0.0535011
-0.0540733
-0.0537872
-0.0526428
-0.0523567
-0.0526428
-0.0540733
-0.0540733
-0.0535011
-0.0540733
-0.0540733
-0.053215
-0.0526428
-0.0523567
-0.0520706
-0.0514984
-0.0514984
-0.0514984
-0.0509262
-0.0512123
-0.0514984
-0.0517845
-0.0520706
-0.0523567
-0.0537872
-0.0546456
-0.0543594
-0.0526428
-0.0506401
-0.0497818
-0.0500679
-0.0494957
-0.0480652
-0.047493
-0.0483513
-0.050354
-0.0506401
-0.0500679
-0.0497818
-0.0492096
-0.047493
-0.0460625
-0.0460625
-0.0460625
-0.0463486
-0.0452042
-0.0437737
-0.0426293
-0.0426293
-0.0434876
-0.0440598
-0.0440598
-0.0423431
-0.0411987
-0.0411987
-0.0409126
-0.0406265
-0.042057
-0.0437737
-0.0434876
-0.0414848
-0.0409126
-0.0432015
-0.0443459
-0.044632
-0.044632
-0.0452042
-0.0454903
-0.0454903
-0.0463486
-0.047493
-0.0489235
-0.0497818
-0.0497818
-0.0489235
-0.0483513
-0.0480652
-0.0483513
-0.047493
-0.0463486
-0.0460625
-0.0460625
-0.0457764
-0.0452042
-0.0449181
-0.0449181
-0.0452042
-0.0460625
-0.0454903
-0.0454903
-0.0454903
-0.0452042
-0.0449181
-0.0449181
-0.0449181
-0.0460625
-0.0463486
-0.0449181
-0.0429154
-0.0414848
-0.0414848
-0.0417709
-0.042057
-0.042057
-0.0429154
-0.0437737
-0.0432015
-0.0432015
-0.0429154
-0.042057
-0.0411987
-0.0406265
-0.0400543
-0.0403404
-0.0417709
-0.0437737
-0.0452042
-0.0457764
-0.0460625
-0.0469208
-0.047493
-0.0472069
-0.047493
-0.0489235
-0.0494957
-0.0514984
-0.0540733
-0.0563622
-0.0575066
-0.0572205
-0.0563622
-0.0560761
-0.0555039
-0.0560761
-0.0577927
-0.0592232
-0.0597954
-0.0612259
-0.0626564
-0.0629425
-0.0620842
-0.0629425
-0.0629425
-0.0612259
-0.058651
-0.0566483
-0.05579
-0.0552178
-0.0552178
-0.0555039
-0.0552178
-0.0543594
-0.0546456
-0.0549317
-0.0555039
-0.0555039
-0.0552178
-0.0543594
-0.053215
-0.0523567
-0.0517845
-0.0523567
-0.0523567
-0.0520706
-0.0509262
-0.0492096
-0.0477791
-0.0472069
-0.0463486
-0.0452042
-0.0432015
-0.042057
-0.042057
-0.0432015
-0.0454903
-0.0469208
-0.0486374
-0.0492096
-0.0483513
-0.0472069
-0.0466347
-0.0466347
-0.0480652
-0.0489235
-0.0494957
-0.0509262
-0.0526428
-0.0540733
-0.0537872
-0.0535011
-0.0523567
-0.0506401
-0.0506401
-0.0500679
-0.0492096
-0.0486374
-0.0486374
-0.0480652
-0.0469208
-0.0452042
-0.044632
-0.0440598
-0.0429154
-0.0423431
-0.0429154
-0.0440598
-0.0443459
-0.0437737
-0.0437737
-0.0437737
-0.0440598
-0.0443459
-0.0449181
-0.0457764
-0.0463486
-0.0457764
-0.0443459
-0.0432015
-0.0423431
-0.0417709
-0.0411987
-0.0409126
-0.0414848
-0.042057
-0.0417709
-0.042057
-0.0417709
-0.0406265
-0.039196
-0.0366211
-0.0340462
-0.0329018
-0.0340462
-0.0357628
-0.0357628
-0.0369072
-0.0383377
-0.0386238
-0.0389099
-0.0386238
-0.0380516
-0.0394821
-0.0400543
-0.0394821
-0.0380516
-0.036335
-0.0357628
-0.0360489
-0.0351906
-0.0337601
-0.0331879
-0.0331879
-0.0331879
-0.0329018
-0.0329018
-0.0326157
-0.0323296
-0.0337601
-0.0360489
-0.0377655
-0.0386238
-0.039196
-0.0394821
-0.0394821
-0.0400543
-0.0409126
-0.0414848
-0.0414848
-0.0417709
-0.0411987
-0.0411987
-0.0414848
-0.0414848
-0.0411987
-0.0403404
-0.039196
-0.0377655
-0.0366211
-0.0346184
-0.0340462
-0.0346184
-0.0340462
-0.0331879
-0.0329018
-0.0340462
-0.0351906
-0.0360489
-0.0357628
-0.0343323
-0.0329018
-0.0320435
-0.0314713
-0.0303269
-0.0286102
-0.0274658
-0.0271797
-0.0268936
-0.0248909
-0.0228882
-0.0214577
-0.0205994
-0.0177383
-0.0151634
-0.0137329
-0.0134468
-0.0134468
-0.0125885
-0.0117302
-0.0094414
-0.0074387
-0.005722
-0.0040054
-0.0020027
0.0005722
0.0022888
0.0040054
0.0062943
0.008297
0.0085831
0.0077248
0.0074387
0.0088692
0.0091553
0.0091553
0.0094414
0.0097275
0.0097275
0.0108719
0.0117302
0.0123024
0.0114441
0.0097275
0.0071526
0.0040054
0.0005722
-0.0020027
-0.0042915
-0.0068665
-0.0094414
-0.0105858
-0.0123024
-0.0151634
-0.0171661
-0.0174522
-0.0171661
-0.0177383
-0.01688
-0.0145912
-0.0120163
-0.0085831
-0.0054359
-0.0017166
0.0017166
0.0045776
0.0068665
0.0085831
0.0097275
0.0114441
0.0143051
0.0163078
0.0174522
0.0171661
0.0177383
0.0165939
0.0148773
0.0143051
0.0125885
0.0108719
0.008297
0.0054359
0.0031471
0.0014305
0
-0.0011444
-0.0031471
-0.0065804
-0.0105858
-0.014019
-0.0165939
-0.0188828
-0.0217438
-0.0246048
-0.0277519
-0.0303269
-0.0329018
-0.0351906
-0.0374794
-0.0400543
-0.0423431
-0.0432015
-0.0443459
-0.0443459
-0.0443459
-0.0440598
-0.0432015
-0.042057
-0.0409126
-0.0386238
-0.0369072
-0.036335
-0.0357628
-0.0354767
-0.0354767
-0.0349045
-0.0329018
-0.0314713
-0.0320435
-0.0326157
-0.0331879
-0.033474
-0.0323296
-0.0311852
-0.0308991
-0.0314713
-0.0323296
-0.0323296
-0.0317574
-0.0320435
-0.0323296
-0.0320435
-0.0329018
-0.0343323
-0.0351906
-0.0354767
-0.0349045
-0.0349045
-0.0351906
-0.0354767
-0.0354767
-0.0343323
-0.0331879
-0.0326157
-0.0326157
-0.0314713
-0.0303269
-0.0288963
-0.028038
-0.0260353
-0.0231743
-0.0200272
-0.014019
-0.0068665
0.0008583
0.0125885
0.0271797
0.0443459
0.0626564
0.0829697
0.1058579
0.12846
0.1487732
0.1699448
0.1908303
0.2108574
0.2308846
0.248909
0.2649308
0.2792359
0.2915383
0.3021241
0.3107072
0.3161431
0.3190041
0.3204346
0.321579
0.3207207
0.3190041
0.3184319
0.3170014
0.3149987
0.3115654
0.3055573
0.2978325
0.2886772
0.2755166
0.2609253
0.2463341
0.232029
0.2174378
0.2025605
0.1871109
0.170517
0.1522064
0.1338959
0.1158715
0.0984192
0.0829697
0.0712395
0.0620842
0.05579
0.0529289
0.0529289
0.0549317
0.0572205
0.0589371
0.0612259
0.0646591
0.0686646
0.0715256
0.0749588
0.0769615
0.0769615
0.0772476
0.0758171
0.0723839
0.0678063
0.0638008
0.0597954
0.0560761
0.0526428
0.0509262
0.0486374
0.0452042
0.0403404
0.036335
0.0337601
0.0300408
0.028038
0.0260353
0.0231743
0.0200272
0.0163078
0.0137329
0.011158
0.0088692
0.0060081
0.0025749
0.0002861
-0.0002861
-0.0008583
-0.0005722
-0.0005722
-0.0017166
-0.0025749
-0.0031471
-0.0037193
-0.0042915
-0.0037193
-0.002861
-0.0031471
-0.0034332
-0.0037193
-0.0025749
-0.0005722
0.0005722
0.0008583
0.0014305
0.0017166
0.0011444
0.0008583
0.0014305
0.0011444
0.0011444
0.0020027
0.0014305
0.0020027
0.0042915
0.0068665
0.0085831
0.0091553
0.0085831
0.008297
0.0097275
0.0102997
0.0100136
0.0102997
0.0108719
0.011158
0.0117302
0.0131607
0.0128746
0.0123024
0.0120163
0.0097275
0.0068665
0.0051498
0.0060081
0.0077248
0.0088692
0.0091553
0.0102997
0.0128746
0.0145912
0.0157356
0.01688
0.0185967
0.019455
0.0203133
0.0217438
0.0234604
0.0268936
0.030613
0.0331879
0.0340462
0.0346184
0.0357628
0.0374794
0.0386238
0.0383377
0.0389099
0.0394821
0.0403404
0.0409126
0.0409126
0.0414848
0.0429154
0.0437737
0.044632
0.0449181
0.044632
0.0469208
0.0492096
0.0514984
0.0543594
0.0575066
0.0603676
0.0626564
0.0649452
0.0672341
0.0700951
0.0729561
0.075531
0.0766754
0.0781059
0.0792504
0.0806809
0.0826836
0.0829697
0.0844002
0.0849724
0.0846863
0.0841141
0.0849724
0.0861168
0.086689
0.0864029
0.0849724
0.083828
0.0844002
0.0855446
0.086689
0.0881195
0.0901222
0.092125
0.0952721
0.0981331
0.1015663
0.1058579
0.1092911
0.1112938
0.1130104
0.1152992
0.1181603
0.1210213
0.1233101
0.1241684
0.1250267
0.125885
0.125885
0.1264572
0.1278878
0.128746
0.1301766
0.1318932
0.1318932
0.1321793
0.1321793
0.1321793
0.1333237
0.1347542
0.1356125
0.1358986
0.1361847
0.1364708
0.1381874
0.1407623
0.1430512
0.1447678
0.1459122
0.1459122
0.1456261
0.1467705
0.1476288
0.1484871
0.1487732
0.1459122
0.1421929
0.1401902
0.1399041
0.1396179
0.1384735
0.1367569
0.1347542
0.1321793
0.1304627
0.128746
0.1267433
0.1250267
0.1218796
0.1178742
0.1150131
0.1124382
0.1110077
0.109005
0.1049996
0.100708
0.0975609
0.094986
0.0904083
0.0855446
0.0806809
0.0758171
0.0718117
0.0680924
0.0638008
0.0597954
0.05579
0.0512123
0.0463486
0.0409126
0.0360489
0.0323296
0.0283241
0.0240326
0.0200272
0.0165939
0.014019
0.0117302
0.0100136
0.0080109
0.0060081
0.0022888
0
-0.0025749
-0.0051498
-0.008297
-0.0128746
-0.0174522
-0.0205994
-0.0237465
-0.0277519
-0.0326157
-0.0374794
-0.0414848
-0.0466347
-0.0514984
-0.0560761
-0.0603676
-0.0640869
-0.0689507
-0.0732422
-0.0761032
-0.0792504
-0.0815392
-0.0832558
-0.0864029
-0.0901222
-0.0929833
-0.094986
-0.0967026
-0.0975609
-0.0975609
-0.097847
-0.0989914
-0.100708
-0.1021385
-0.1032829
-0.1049996
-0.1072884
-0.1087189
-0.109005
-0.1092911
-0.1098633
-0.1095772
-0.1092911
-0.109005
-0.1087189
-0.1087189
-0.1078606
-0.1075745
-0.1070023
-0.1058579
-0.103569
-0.100708
-0.0981331
-0.0969887
-0.0961304
-0.0961304
-0.0961304
-0.0967026
-0.097847
-0.0987053
-0.0995636
-0.0995636
-0.0995636
-0.0992775
-0.0984192
-0.0967026
-0.0946999
-0.0941277
-0.0952721
-0.0955582
-0.0958443
-0.0967026
-0.0981331
-0.0998497
-0.1004219
-0.0992775
-0.097847
-0.0958443
-0.0941277
-0.0924111
-0.0906944
-0.0892639
-0.0881195
-0.0875473
-0.0872612
-0.0861168
-0.0852585
-0.0852585
-0.083828
-0.0826836
-0.0806809
-0.0789642
-0.0789642
-0.0792504
-0.0795365
-0.0795365
-0.0789642
-0.0778198
-0.0766754
-0.0758171
-0.0746727
-0.0738144
-0.0743866
-0.0761032
-0.0763893
-0.0766754
-0.0766754
-0.0761032
-0.0763893
-0.0758171
-0.0746727
-0.0732422
-0.0720978
-0.0709534
-0.0709534
-0.0709534
-0.0709534
-0.0715256
-0.0718117
-0.0706673
-0.0692368
-0.0683785
-0.0683785
-0.0680924
-0.066948
-0.0646591
-0.0635147
-0.0632286
-0.0632286
-0.0623703
-0.061512
-0.0606537
-0.0603676
-0.0609398
-0.0603676
-0.0592232
-0.0589371
-0.058651
-0.058651
-0.0580788
-0.0577927
-0.0583649
-0.0595093
-0.0589371
-0.0572205
-0.05579
-0.0552178
-0.0540733
-0.0535011
-0.0523567
-0.0514984
-0.0514984
-0.0517845
-0.0520706
-0.0529289
-0.0543594
-0.0552178
-0.0549317
-0.0543594
-0.0543594
-0.0552178
-0.0555039
-0.0552178
-0.0540733
-0.0537872
-0.0546456
-0.0555039
-0.0543594
-0.0526428
-0.0523567
-0.0520706
-0.0523567
-0.0523567
-0.0540733
-0.05579
-0.0563622
-0.0560761
-0.0555039
-0.0552178
-0.0546456
-0.0535011
-0.0517845
-0.050354
-0.050354
-0.0514984
-0.0526428
-0.053215
-0.0529289
-0.0517845
-0.0489235
-0.0452042
-0.0429154
-0.0426293
-0.0429154
-0.0423431
-0.0426293
-0.0429154
-0.0429154
-0.0432015
-0.0429154
-0.0426293
-0.0411987
-0.0400543
-0.0400543
-0.0411987
-0.0437737
-0.0469208
-0.0497818
-0.0509262
-0.0520706
-0.0520706
-0.0520706
-0.0512123
-0.0509262
-0.0523567
-0.0535011
-0.0537872
-0.0535011
-0.0549317
-0.0577927
-0.0603676
-0.0620842
-0.0623703
-0.0620842
-0.0629425
-0.064373
-0.0652313
-0.066948
-0.0680924
-0.0692368
-0.0695229
-0.0686646
-0.0683785
-0.0689507
-0.0706673
-0.0715256
-0.0709534
-0.0692368
-0.0683785
-0.0683785
-0.0680924
-0.0658035
-0.0640869
-0.0640869
-0.0638008
-0.0640869
-0.0646591
-0.0635147
-0.0626564
-0.0620842
-0.0617981
-0.0620842
-0.0626564
-0.0632286
-0.0646591
-0.0658035
-0.0660896
-0.0666618
-0.0675202
-0.0675202
-0.0675202
-0.0672341
-0.0666618
-0.0658035
-0.0658035
-0.0660896
-0.0658035
-0.0652313
-0.0635147
-0.0629425
-0.0638008
-0.0649452
-0.064373
-0.0638008
-0.0635147
-0.0640869
-0.0652313
-0.0646591
-0.0629425
-0.061512
-0.0597954
-0.0595093
-0.0597954
-0.0606537
-0.0617981
-0.0629425
-0.0629425
-0.0623703
-0.0617981
-0.0620842
-0.0626564
-0.0626564
-0.0632286
-0.0635147
-0.0640869
-0.064373
-0.064373
-0.0640869
-0.0626564
-0.0617981
-0.061512
-0.0612259
-0.0612259
-0.0606537
-0.0592232
-0.058651
-0.0600815
-0.0612259
-0.0617981
-0.0620842
-0.0617981
-0.0600815
-0.0583649
-0.0575066
-0.0566483
-0.0566483
-0.0566483
-0.0555039
-0.0535011
-0.0529289
-0.0535011
-0.0549317
-0.0552178
-0.0535011
-0.0517845
-0.0509262
-0.050354
-0.0500679
-0.0494957
-0.0497818
-0.0497818
-0.0494957
-0.0492096
-0.0492096
-0.0494957
-0.0494957
-0.0494957
-0.0500679
-0.0500679
-0.050354
-0.0526428
-0.0540733
-0.0543594
-0.0540733
-0.0535011
-0.0540733
-0.0540733
-0.0540733
-0.0537872
-0.0529289
-0.0520706
-0.0520706
-0.0526428
-0.0526428
-0.0517845
-0.0514984
-0.0506401
-0.0483513
-0.0454903
-0.0449181
-0.0452042
-0.0443459
-0.0434876
-0.0423431
-0.0411987
-0.0403404
-0.0403404
-0.0406265
-0.0406265
-0.0403404
-0.0411987
-0.0423431
-0.0437737
-0.044632
-0.044632
-0.0443459
-0.0440598
-0.0434876
-0.0437737
-0.0429154
-0.042057
-0.042057
-0.042057
-0.0406265
-0.039196
-0.0383377
-0.0380516
-0.0371933
-0.0360489
-0.0357628
-0.0354767
-0.0351906
-0.036335
-0.0374794
-0.0374794
-0.0360489
-0.0351906
-0.0346184
-0.0340462
-0.0340462
-0.0346184
-0.0349045
-0.0354767
-0.0354767
-0.0357628
-0.0360489
-0.0360489
-0.0360489
-0.0360489
-0.0360489
-0.0351906
-0.0343323
-0.0331879
-0.0308991
-0.0294685
-0.0277519
-0.0257492
-0.0248909
-0.0243187
-0.0237465
-0.0231743
-0.0234604
-0.0226021
-0.0208855
-0.019455
-0.0185967
-0.0174522
-0.0163078
-0.0163078
-0.0160217
-0.0165939
-0.0165939
-0.0171661
-0.0171661
-0.0174522
-0.0174522
-0.0177383
-0.0177383
-0.01688
-0.0180245
-0.0208855
-0.0228882
-0.0240326
-0.0248909
-0.0260353
-0.0254631
-0.0248909
-0.0257492
-0.0263214
-0.0257492
-0.0254631
-0.0268936
-0.0288963
-0.0297546
-0.0311852
-0.0323296
-0.0317574
-0.0294685
-0.0286102
-0.0288963
-0.0297546
-0.0294685
-0.0300408
-0.0308991
-0.0308991
-0.0294685
-0.0283241
-0.0277519
-0.0263214
-0.0240326
-0.022316
-0.0211716
-0.0208855
-0.0211716
-0.0208855
-0.0205994
-0.0205994
-0.019455
-0.0174522
-0.0145912
-0.0117302
-0.0097275
-0.0088692
-0.008297
-0.0071526
-0.0062943
-0.0062943
-0.0068665
-0.0062943
-0.0045776
-0.0034332
-0.0037193
-0.0034332
-0.0034332
-0.0037193
-0.0042915
-0.0048637
-0.005722
-0.0060081
-0.0062943
-0.0080109
-0.0105858
-0.0128746
-0.0151634
-0.0174522
-0.0191689
-0.0211716
-0.0226021
-0.0240326
-0.0246048
-0.0231743
-0.0208855
-0.0185967
-0.0174522
-0.0157356
-0.0137329
-0.0123024
-0.0102997
-0.0085831
-0.0068665
-0.0045776
-0.0017166
0.0014305
0.0042915
0.0071526
0.0097275
0.0117302
0.0134468
0.0148773
0.0154495
0.0174522
0.0191689
0.0200272
0.0211716
0.0214577
0.0217438
0.0217438
0.0208855
0.0200272
0.0177383
0.0151634
0.011158
0.0068665
0.0042915
0.0014305
-0.0014305
-0.0048637
-0.0097275
-0.0137329
-0.0165939
-0.0200272
-0.0231743
-0.0263214
-0.0294685
-0.0317574
-0.0351906
-0.0386238
-0.0411987
-0.0426293
-0.0440598
-0.0463486
-0.0477791
-0.0483513
-0.0483513
-0.0472069
-0.0463486
-0.0463486
-0.0454903
-0.0437737
-0.0423431
-0.042057
-0.0429154
-0.0429154
-0.0423431
-0.0423431
-0.0417709
-0.0400543
-0.0383377
-0.0360489
-0.0340462
-0.0320435
-0.0297546
-0.0277519
-0.0266075
-0.0263214
-0.0260353
-0.0257492
-0.025177
-0.0234604
-0.0220299
-0.0203133
-0.0188828
-0.0183106
-0.0177383
-0.0174522
-0.0174522
-0.0183106
-0.019455
-0.0208855
-0.0220299
-0.0231743
-0.0240326
-0.0243187
-0.0243187
-0.0234604
-0.0205994
-0.0154495
-0.0088692
0.0005722
0.0117302
0.0257492
0.0434876
0.0626564
0.0829697
0.1047135
0.1261711
0.1476288
0.1696587
0.1916886
0.2120018
0.2326012
0.2537728
0.2709389
0.2846718
0.2969742
0.3069878
0.3144265
0.3198624
0.3230095
0.3261567
0.3284455
0.3295899
0.3313065
0.332737
0.3335953
0.3321648
0.3293038
0.3255845
0.3192902
0.3109932
0.3004075
0.2883912
0.2752304
0.2632141
0.2520562
0.2394677
0.2248764
0.209713
0.1936913
0.1776696
0.1610756
0.1459122
0.1333237
0.1215935
0.1110077
0.103569
0.1001358
0.0998497
0.1012802
0.1027107
0.1024246
0.1015663
0.1021385
0.1041413
0.106144
0.1084328
0.1087189
0.1084328
0.1072884
0.1047135
0.1021385
0.0984192
0.092125
0.0855446
0.0795365
0.0738144
0.069809
0.0672341
0.0646591
0.0617981
0.0580788
0.0540733
0.050354
0.047493
0.0440598
0.0400543
0.0360489
0.0314713
0.0277519
0.0263214
0.0254631
0.0243187
0.0234604
0.022316
0.0205994
0.019455
0.0177383
0.0165939
0.0163078
0.0163078
0.0151634
0.0137329
0.0137329
0.0134468
0.0137329
0.0134468
0.0117302
0.0108719
0.0102997
0.0085831
0.0065804
0.0062943
0.0065804
0.0062943
0.0060081
0.005722
0.0060081
0.0091553
0.0131607
0.0151634
0.0165939
0.01688
0.0183106
0.0203133
0.0214577
0.0205994
0.0200272
0.0205994
0.0205994
0.0203133
0.0214577
0.0226021
0.0234604
0.0240326
0.0226021
0.0205994
0.0191689
0.0180245
0.0177383
0.0171661
0.0160217
0.0157356
0.0157356
0.0171661
0.0191689
0.0205994
0.0226021
0.0237465
0.0257492
0.0294685
0.0326157
0.0346184
0.0360489
0.0371933
0.039196
0.042057
0.0434876
0.044632
0.0466347
0.0483513
0.0492096
0.0489235
0.0497818
0.0514984
0.0537872
0.0549317
0.0526428
0.050354
0.0483513
0.0463486
0.0452042
0.0443459
0.0423431
0.0417709
0.0429154
0.0434876
0.0443459
0.0457764
0.0483513
0.050354
0.0517845
0.0526428
0.0535011
0.0549317
0.0566483
0.0609398
0.0663758
0.069809
0.0720978
0.0752449
0.0778198
0.0801087
0.0812531
0.0832558
0.0849724
0.0869751
0.0884056
0.0898361
0.0909805
0.0938416
0.0972748
0.1001358
0.100708
0.1012802
0.1024246
0.1044274
0.1064301
0.1078606
0.1092911
0.1107216
0.111866
0.114727
0.1167298
0.1190186
0.1224518
0.125885
0.1278878
0.128746
0.1293183
0.128746
0.12846
0.1293183
0.1307488
0.1318932
0.1338959
0.1361847
0.1390457
0.1421929
0.1436234
0.1447678
0.14534
0.1450539
0.1456261
0.1461983
0.1464844
0.1464844
0.1464844
0.14534
0.1439095
0.1433373
0.1427651
0.1416207
0.1401902
0.1384735
0.137043
0.1358986
0.1344681
0.1344681
0.1350403
0.1350403
0.1344681
0.1336098
0.1327515
0.1318932
0.1307488
0.1298905
0.1281739
0.1267433
0.1261711
0.1253128
0.1250267
0.1241684
0.1227379
0.1215935
0.1193047
0.117302
0.1144409
0.1104355
0.1078606
0.1049996
0.103569
0.1027107
0.1009941
0.0998497
0.0975609
0.0935555
0.0892639
0.086689
0.0846863
0.0835419
0.0823975
0.0815392
0.0798226
0.0763893
0.0729561
0.0689507
0.0652313
0.0612259
0.0577927
0.0529289
0.0463486
0.0406265
0.0369072
0.0323296
0.0263214
0.0214577
0.0177383
0.0148773
0.0108719
0.0068665
0.0037193
0
-0.0037193
-0.0080109
-0.0125885
-0.0180245
-0.0217438
-0.025177
-0.0291824
-0.0331879
-0.0354767
-0.0377655
-0.0411987
-0.0454903
-0.0497818
-0.0529289
-0.05579
-0.0583649
-0.0609398
-0.0632286
-0.0655174
-0.0675202
-0.0692368
-0.0660896
-0.0672341
-0.0672341
-0.0672341
-0.0680924
0.0403404
0.0377655
0.0360489
0.0357628
0.0349045
0.033474
0.0323296
0.0320435
0.0323296
0.0323296
0.0314713
0.0303269
0.0243187
0.0228882
0.0211716
0.0191689
0.0174522
-0.0926972
-0.0918389
-0.0909805
-0.0906944
-0.0906944
-0.0912667
-0.0915528
-0.0915528
-0.092125
-0.0938416
-0.094986
-0.0946999
-0.0946999
-0.0946999
-0.0938416
-0.0932694
-0.092125
-0.0912667
-0.092125
-0.0932694
-0.0955582
-0.0987053
-0.100708
-0.1015663
-0.1015663
-0.1018524
-0.1012802
-0.1009941
-0.1012802
-0.1012802
-0.1004219
-0.0998497
-0.1001358
-0.1009941
-0.1009941
-0.0995636
-0.0972748
-0.0941277
-0.0906944
-0.0878334
-0.0869751
-0.086689
-0.0858307
-0.0849724
-0.083828
-0.0829697
-0.0826836
-0.0832558
-0.0829697
-0.0823975
-0.0818253
-0.0818253
-0.0818253
-0.0821114
-0.0821114
-0.0818253
-0.0818253
-0.0818253
-0.080967
-0.0806809
-0.080967
-0.0823975
-0.0835419
-0.0823975
-0.0818253
-0.0823975
-0.0823975
-0.0821114
-0.0801087
-0.0775337
-0.0749588
-0.0732422
-0.0729561
-0.0729561
-0.0729561
-0.07267
-0.0732422
-0.0738144
-0.07267
-0.0718117
-0.0718117
-0.0715256
-0.0706673
-0.0686646
-0.0658035
-0.0649452
-0.0658035
-0.0660896
-0.0658035
-0.0649452
-0.0640869
-0.0638008
-0.064373
-0.0649452
-0.064373
-0.0635147
-0.0620842
-0.0612259
-0.0609398
-0.0606537
-0.0606537
-0.0609398
-0.0600815
-0.058651
-0.0589371
-0.0600815
-0.0606537
-0.0606537
-0.0600815
-0.0583649
-0.0566483
-0.0560761
-0.0572205
-0.0580788
-0.0583649
-0.0580788
-0.0569344
-0.0569344
-0.0572205
-0.0572205
-0.0560761
-0.0537872
-0.0512123
-0.0494957
-0.0483513
-0.0480652
-0.0486374
-0.0486374
-0.047493
-0.0452042
-0.0437737
-0.0426293
-0.0423431
-0.042057
-0.0406265
-0.0389099
-0.0371933
-0.036335
-0.036335
-0.0360489
-0.0366211
-0.0369072
-0.0374794
-0.039196
-0.0406265
-0.0423431
-0.0443459
-0.0449181
-0.0454903
-0.0460625
-0.0457764
-0.0457764
-0.0449181
-0.0443459
-0.0437737
-0.0426293
-0.0417709
-0.0400543
-0.0383377
-0.0366211
-0.0340462
-0.0320435
-0.0314713
-0.0308991
-0.0311852
-0.0311852
-0.0291824
-0.0277519
-0.0260353
-0.025177
-0.0248909
-0.0248909
-0.0260353
-0.0271797
-0.0288963
-0.030613
-0.0329018
-0.0351906
-0.0374794
-0.0380516
-0.039196
-0.0397682
-0.0403404
-0.0414848
-0.0414848
-0.042057
-0.0432015
-0.0443459
-0.0457764
-0.0469208
-0.0480652
-0.0494957
-0.0506401
-0.0512123
-0.0520706
-0.0529289
-0.0546456
-0.05579
-0.0566483
-0.0577927
-0.0595093
-0.0612259
-0.0620842
-0.0620842
-0.0612259
-0.0603676
-0.0603676
-0.0595093
-0.0592232
-0.0589371
-0.0592232
-0.0592232
-0.0592232
-0.0583649
-0.0580788
-0.0569344
-0.0549317
-0.0529289
-0.0520706
-0.0514984
-0.0506401
-0.050354
-0.0497818
-0.0486374
-0.0494957
-0.050354
-0.0517845
-0.053215
-0.0537872
-0.0535011
-0.053215
-0.0529289
-0.053215
-0.0552178
-0.0569344
-0.0569344
-0.0546456
-0.0537872
-0.0543594
-0.0555039
-0.0566483
-0.0560761
-0.0552178
-0.0540733
-0.053215
-0.0529289
-0.0537872
-0.0540733
-0.0543594
-0.0540733
-0.0529289
-0.0523567
-0.0517845
-0.0523567
-0.053215
-0.0529289
-0.0520706
-0.0514984
-0.0506401
-0.050354
-0.0494957
-0.0486374
-0.0477791
-0.0469208
-0.0457764
-0.0437737
-0.0429154
-0.0417709
-0.0403404
-0.0400543
-0.0411987
-0.0423431
-0.0426293
-0.0423431
-0.0426293
-0.0440598
-0.0454903
-0.0469208
-0.0480652
-0.0477791
-0.047493
-0.0477791
-0.0480652
-0.0469208
-0.0457764
-0.044632
-0.044632
-0.0440598
-0.0426293
-0.0423431
-0.042057
-0.0409126
-0.039196
-0.0377655
-0.0369072
-0.0360489
-0.036335
-0.0360489
-0.0369072
-0.039196
-0.0414848
-0.0426293
-0.0426293
-0.0409126
-0.0386238
-0.0374794
-0.036335
-0.0351906
-0.0351906
-0.0360489
-0.0366211
-0.0369072
-0.0369072
-0.0371933
-0.0374794
-0.0366211
-0.0349045
-0.0329018
-0.0317574
-0.0294685
-0.0277519
-0.028038
-0.0286102
-0.0291824
-0.030613
-0.0314713
-0.0323296
-0.033474
-0.0340462
-0.0349045
-0.036335
-0.0377655
-0.0389099
-0.039196
-0.0403404
-0.0403404
-0.0411987
-0.0437737
-0.0434876
-0.0429154
-0.0423431
-0.0417709
-0.0423431
-0.0432015
-0.0443459
-0.0443459
-0.0432015
-0.0417709
-0.0406265
-0.0411987
-0.0414848
-0.0397682
-0.0389099
-0.0380516
-0.0360489
-0.0351906
-0.0354767
-0.036335
-0.0380516
-0.039196
-0.039196
-0.0380516
-0.0374794
-0.0366211
-0.0354767
-0.0349045
-0.0340462
-0.033474
-0.0331879
-0.0314713
-0.0303269
-0.030613
-0.030613
-0.030613
-0.0303269
-0.0288963
-0.0286102
-0.0291824
-0.0297546
-0.0311852
-0.033474
-0.0354767
-0.036335
-0.036335
-0.0346184
-0.0340462
-0.0357628
-0.0374794
-0.0377655
-0.0371933
-0.0366211
-0.0360489
-0.036335
-0.036335
-0.0360489
-0.036335
-0.0360489
-0.0354767
-0.036335
-0.0360489
-0.0351906
-0.0351906
-0.0337601
-0.0314713
-0.0300408
-0.0294685
-0.0300408
-0.0294685
-0.0283241
-0.0260353
-0.0231743
-0.0205994
-0.0180245
-0.0157356
-0.0151634
-0.0131607
-0.0105858
-0.0080109
-0.0054359
-0.0042915
-0.0022888
0
0.0014305
0.0034332
0.0045776
0.0034332
0.0008583
-0.0005722
-0.0011444
-0.0020027
-0.0037193
-0.0048637
-0.0068665
-0.0091553
-0.0108719
-0.0134468
-0.0145912
-0.0151634
-0.0157356
-0.0154495
-0.0151634
-0.0148773
-0.0137329
-0.0117302
-0.0102997
-0.0094414
-0.008297
-0.0048637
-0.0017166
0.0011444
0.0048637
0.0088692
0.0134468
0.0171661
0.0188828
0.0205994
0.0226021
0.0243187
0.0254631
0.0266075
0.0277519
0.0283241
0.0297546
0.030613
0.0303269
0.0303269
0.0303269
0.0300408
0.0286102
0.0263214
0.025177
0.0234604
0.0217438
0.0188828
0.0157356
0.014019
0.011158
0.0077248
0.0042915
-0.0002861
-0.0042915
-0.0080109
-0.0114441
-0.0134468
-0.0160217
-0.0177383
-0.0183106
-0.0203133
-0.0220299
-0.0231743
-0.0234604
-0.0237465
-0.0266075
-0.0286102
-0.0297546
-0.030613
-0.0308991
-0.0314713
-0.0311852
-0.0300408
-0.0294685
-0.0286102
-0.0286102
-0.028038
-0.0263214
-0.0240326
-0.0220299
-0.0208855
-0.0200272
-0.0185967
-0.01688
-0.0165939
-0.0165939
-0.0154495
-0.014019
-0.0134468
-0.0134468
-0.0134468
-0.0125885
-0.0100136
-0.0088692
-0.0088692
-0.0100136
-0.011158
-0.0125885
-0.0143051
-0.014019
-0.014019
-0.014019
-0.0134468
-0.0131607
-0.0137329
-0.0134468
-0.0117302
-0.0080109
-0.002861
0.0025749
0.0100136
0.0197411
0.0320435
0.0463486
0.0629425
0.0806809
0.0972748
0.1138687
0.1318932
0.1502037
0.1688004
0.1876831
0.2065659
0.2251625
0.2426148
0.2577782
0.2706528
0.2820969
0.2912522
0.2975464
0.3015518
0.304699
0.3072739
0.3098488
0.3129959
0.3155709
0.3175736
0.3195763
0.3207207
0.3195763
0.3172875
0.3129959
0.3061295
0.2966881
0.2858162
0.2755166
0.265503
0.2546311
0.2417565
0.226593
0.2111435
0.1959801
0.1811028
0.1667977
0.1539231
0.1416207
0.131321
0.1227379
0.1155853
0.1121521
0.1130104
0.1144409
0.1155853
0.1161575
0.1158715
0.1150131
0.1150131
0.114727
0.1124382
0.1101494
0.1084328
0.1058579
0.103569
0.1009941
0.0987053
0.0964165
0.0926972
0.0881195
0.0835419
0.0789642
0.0749588
0.0720978
0.0700951
0.0678063
0.064373
0.0629425
0.0623703
0.0609398
0.0575066
0.0543594
0.0514984
0.0486374
0.0460625
0.0440598
0.042057
0.0403404
0.0380516
0.0351906
0.0317574
0.0277519
0.0237465
0.0234604
0.0234604
0.022316
0.0205994
0.0197411
0.0197411
0.0191689
0.0191689
0.019455
0.0197411
0.0197411
0.0183106
0.0183106
0.0171661
0.0145912
0.0143051
0.0148773
0.0134468
0.011158
0.0085831
0.0062943
0.0045776
0.0042915
0.0065804
0.0077248
0.0088692
0.0094414
0.0088692
0.0097275
0.0108719
0.0123024
0.0143051
0.0145912
0.0148773
0.0157356
0.0171661
0.0200272
0.0237465
0.0268936
0.0286102
0.0291824
0.0283241
0.0283241
0.0297546
0.0320435
0.033474
0.033474
0.033474
0.0337601
0.0349045
0.0354767
0.0360489
0.0369072
0.0371933
0.0360489
0.0357628
0.0360489
0.036335
0.0369072
0.0371933
0.0374794
0.0369072
0.036335
0.036335
0.036335
0.0366211
0.036335
0.0366211
0.0354767
0.0349045
0.0346184
0.0357628
0.0369072
0.0377655
0.039196
0.0417709
0.0443459
0.0460625
0.047493
0.0486374
0.0497818
0.0514984
0.0526428
0.0546456
0.0575066
0.0606537
0.0632286
0.0649452
0.0660896
0.0672341
0.0695229
0.0718117
0.0735283
0.0741005
0.0732422
0.0732422
0.0735283
0.0732422
0.0732422
0.0729561
0.0729561
0.0732422
0.0735283
0.0729561
0.0720978
0.0723839
0.0735283
0.0741005
0.0746727
0.0752449
0.0766754
0.0795365
0.0818253
0.0846863
0.0875473
0.0904083
0.0935555
0.0955582
0.0964165
0.0981331
0.1018524
0.1058579
0.1095772
0.1132965
0.1170159
0.1195908
0.1218796
0.1233101
0.1238823
0.1244545
0.1244545
0.1244545
0.1241684
0.123024
0.1221657
0.1227379
0.1221657
0.1207352
0.1198769
0.1195908
0.1187325
0.117302
0.1164437
0.1144409
0.1121521
0.1107216
0.1110077
0.1121521
0.1127243
0.1132965
0.1135826
0.1135826
0.1132965
0.1130104
0.1121521
0.1121521
0.1121521
0.1124382
0.1127243
0.1124382
0.1124382
0.1130104
0.1135826
0.1121521
0.1095772
0.1070023
0.1044274
0.1021385
0.1001358
0.0975609
0.0946999
0.0924111
0.0904083
0.0875473
0.083828
0.0803948
0.078392
0.0769615
0.0741005
0.0700951
0.0649452
0.0603676
0.0560761
0.0517845
0.047493
0.0432015
0.0394821
0.0366211
0.0343323
0.0317574
0.0283241
0.0260353
0.0243187
0.0214577
0.0165939
0.0123024
0.0088692
0.0060081
0.0020027
-0.0031471
-0.008297
-0.0125885
-0.0157356
-0.0183106
-0.0214577
-0.0246048
-0.0277519
-0.0300408
-0.0329018
-0.0374794
-0.0423431
-0.0452042
-0.047493
-0.0500679
-0.0526428
-0.0546456
-0.0566483
-0.0589371
-0.0617981
-0.0655174
-0.0695229
-0.0732422
-0.0761032
-0.0786782
-0.0821114
-0.0846863
-0.0875473
-0.0892639
-0.0912667
-0.0935555
-0.0964165
-0.0995636
-0.1018524
-0.103569
-0.1041413
-0.103569
-0.1029968
-0.1029968
-0.1029968
-0.1038551
-0.1044274
-0.1044274
-0.1041413
-0.1052857
-0.1067162
-0.1064301
-0.1064301
-0.106144
-0.1072884
-0.1087189
-0.109005
-0.1087189
-0.1087189
-0.1092911
-0.1095772
-0.1095772
-0.1078606
-0.1070023
-0.1070023
-0.1067162
-0.1058579
-0.1044274
-0.1047135
-0.1052857
-0.1055718
-0.1055718
-0.1047135
-0.1052857
-0.1064301
-0.106144
-0.1049996
-0.1044274
-0.1038551
-0.103569
-0.1029968
-0.1012802
-0.0995636
-0.0987053
-0.0975609
-0.0958443
-0.094986
-0.0941277
-0.0935555
-0.0932694
-0.0924111
-0.0918389
-0.0926972
-0.0932694
-0.092125
-0.0906944
-0.0909805
-0.0909805
-0.0898361
-0.0884056
-0.0875473
-0.0884056
-0.0901222
-0.092125
-0.0926972
-0.0926972
-0.0929833
-0.0924111
-0.0906944
-0.0898361
-0.0904083
-0.0909805
-0.0906944
-0.0884056
-0.0861168
-0.0846863
-0.0835419
-0.0823975
-0.0815392
-0.0803948
-0.0786782
-0.0769615
-0.0752449
-0.0732422
-0.0723839
-0.0729561
-0.0723839
-0.069809
-0.0672341
-0.0658035
-0.0649452
-0.0635147
-0.0629425
-0.0629425
-0.0626564
-0.0600815
-0.0572205
-0.0572205
-0.0575066
-0.0577927
-0.0575066
-0.0560761
-0.05579
-0.0549317
-0.05579
-0.0572205
-0.0580788
-0.0589371
-0.0603676
-0.061512
-0.0623703
-0.0632286
-0.0652313
-0.0672341
-0.0680924
-0.0686646
-0.069809
-0.0715256
-0.0723839
-0.07267
-0.0741005
-0.0743866
-0.0735283
-0.07267
-0.0720978
-0.0706673
-0.0689507
-0.0692368
-0.0692368
-0.0686646
-0.0680924
-0.0672341
-0.0678063
-0.0686646
-0.0686646
-0.0683785
-0.066948
-0.0649452
-0.0632286
-0.061512
-0.0606537
-0.0609398
-0.061512
-0.0612259
-0.0592232
-0.0569344
-0.0572205
-0.0583649
-0.0597954
-0.0597954
-0.0597954
-0.0609398
-0.0632286
-0.0649452
-0.0649452
-0.0646591
-0.0652313
-0.0649452
-0.0638008
-0.0620842
-0.061512
-0.0626564
-0.0646591
-0.0649452
-0.064373
-0.0635147
-0.0632286
-0.0626564
-0.0612259
-0.0603676
-0.0603676
-0.0606537
-0.0606537
-0.0603676
-0.0592232
-0.0583649
-0.0589371
-0.0600815
-0.0603676
-0.0597954
-0.0592232
-0.0589371
-0.0595093
-0.0606537
-0.0597954
-0.0589371
-0.0589371
-0.0606537
-0.0626564
-0.0640869
-0.0660896
-0.0680924
-0.0689507
-0.0700951
-0.0703812
-0.0709534
-0.07267
-0.0749588
-0.0775337
-0.078392
-0.0778198
-0.0792504
-0.0803948
-0.0801087
-0.0789642
-0.0786782
-0.0775337
-0.075531
-0.0729561
-0.0706673
-0.069809
-0.0695229
-0.0692368
-0.0683785
-0.0675202
-0.0663758
-0.0655174
-0.0649452
-0.0640869
-0.0638008
-0.0646591
-0.0646591
-0.0632286
-0.0620842
-0.0620842
-0.0629425
-0.0638008
-0.0646591
-0.0649452
-0.0655174
-0.0666618
-0.0672341
-0.0675202
-0.0683785
-0.069809
-0.0709534
-0.0700951
-0.0678063
-0.0663758
-0.0660896
-0.0666618
-0.0658035
-0.0649452
-0.0649452
-0.0652313
-0.0655174
-0.0646591
-0.0635147
-0.0629425
-0.0626564
-0.0623703
-0.0617981
-0.061512
-0.0626564
-0.0632286
-0.0623703
-0.0609398
-0.0592232
-0.0580788
-0.0566483
-0.0563622
-0.0560761
-0.0552178
-0.0549317
-0.0543594
-0.0543594
-0.0555039
-0.0549317
-0.0540733
-0.0540733
-0.0549317
-0.0552178
-0.0552178
-0.05579
-0.0566483
-0.058651
-0.0606537
-0.0620842
-0.0617981
-0.0623703
-0.0635147
-0.0649452
-0.0663758
-0.0658035
-0.066948
-0.0683785
-0.0686646
-0.0683785
-0.0683785
-0.069809
-0.0709534
-0.0712395
-0.0706673
-0.0706673
-0.0706673
-0.0709534
-0.0712395
-0.0720978
-0.0729561
-0.0729561
-0.0743866
-0.0749588
-0.0749588
-0.0746727
-0.0735283
-0.0720978
-0.0706673
-0.069809
-0.069809
-0.069809
-0.0686646
-0.0672341
-0.0663758
-0.0660896
-0.0649452
-0.0640869
-0.0635147
-0.0638008
-0.0638008
-0.0632286
-0.0626564
-0.0620842
-0.0635147
-0.0646591
-0.0635147
-0.0612259
-0.0597954
-0.0597954
-0.061512
-0.0629425
-0.0640869
-0.0646591
-0.0649452
-0.0652313
-0.0638008
-0.0623703
-0.061512
-0.0600815
-0.0589371
-0.0566483
-0.0543594
-0.0537872
-0.0526428
-0.0509262
-0.0500679
-0.0486374
-0.0460625
-0.0443459
-0.044632
-0.0452042
-0.0449181
-0.0454903
-0.0469208
-0.0486374
-0.0514984
-0.0540733
-0.0546456
-0.053215
-0.0520706
-0.053215
-0.0543594
-0.0535011
-0.0537872
-0.0552178
-0.0563622
-0.0566483
-0.0566483
-0.0569344
-0.0577927
-0.0583649
-0.0577927
-0.0572205
-0.0566483
-0.0566483
-0.0583649
-0.0595093
-0.0595093
-0.0600815
-0.0609398
-0.0609398
-0.0609398
-0.0609398
-0.0603676
-0.0600815
-0.0589371
-0.0575066
-0.0566483
-0.0560761
-0.0546456
-0.053215
-0.0520706
-0.050354
-0.0483513
-0.0466347
-0.0449181
-0.0434876
-0.0423431
-0.0417709
-0.0414848
-0.0409126
-0.0400543
-0.0403404
-0.0406265
-0.0397682
-0.0380516
-0.0360489
-0.0331879
-0.030613
-0.0291824
-0.0283241
-0.0283241
-0.0286102
-0.0286102
-0.0283241
-0.0274658
-0.0271797
-0.0286102
-0.0300408
-0.0311852
-0.0320435
-0.0326157
-0.033474
-0.0357628
-0.0386238
-0.0409126
-0.042057
-0.0414848
-0.0397682
-0.0383377
-0.0371933
-0.0366211
-0.0371933
-0.0383377
-0.0371933
-0.0346184
-0.0317574
-0.0286102
-0.0257492
-0.0237465
-0.0200272
-0.0148773
-0.0102997
-0.0071526
-0.0042915
-0.0025749
-0.0014305
0
0.0014305
0.0037193
0.0062943
0.0068665
0.0077248
0.0080109
0.0071526
0.0062943
0.005722
0.0045776
0.002861
0.0005722
-0.0022888
-0.0062943
-0.0094414
-0.0128746
-0.0177383
-0.0226021
-0.0274658
-0.0308991
-0.0331879
-0.0366211
-0.0406265
-0.0432015
-0.0449181
-0.0466347
-0.0486374
-0.0509262
-0.0520706
-0.0523567
-0.0529289
-0.0549317
-0.0555039
-0.0552178
-0.0543594
-0.0540733
-0.0540733
-0.053215
-0.0520706
-0.0514984
-0.0517845
-0.0526428
-0.0520706
-0.0506401
-0.0494957
-0.0486374
-0.047493
-0.0454903
-0.0437737
-0.0432015
-0.0426293
-0.0423431
-0.042057
-0.0417709
-0.0426293
-0.0434876
-0.0432015
-0.0432015
-0.0423431
-0.0411987
-0.0406265
-0.0394821
-0.0386238
-0.0380516
-0.0383377
-0.039196
-0.0409126
-0.0426293
-0.0426293
-0.0423431
-0.0426293
-0.0426293
-0.0426293
-0.0414848
-0.0374794
-0.0323296
-0.0263214
-0.0174522
-0.0065804
0.0054359
0.019455
0.0357628
0.0540733
0.0746727
0.0952721
0.1141548
0.1327515
0.1519203
0.1725197
0.1939774
0.2154351
0.23489
0.25177
0.2663613
0.2783776
0.287819
0.2941132
0.2978325
0.3009796
0.3029824
0.3041268
0.3044129
0.3052712
0.3055573
0.3067017
0.3058434
0.301838
0.2966881
0.29068
0.282383
0.2709389
0.2583504
0.2449036
0.2305985
0.2171517
0.2034188
0.1891136
0.1739502
0.1576424
0.1401902
0.1235962
0.1081467
0.0938416
0.0823975
0.07267
0.0646591
0.0609398
0.0603676
0.0617981
0.064373
0.0683785
0.0715256
0.0738144
0.075531
0.0763893
0.0781059
0.0798226
0.0806809
0.0806809
0.0795365
0.0786782
0.0778198
0.0766754
0.0746727
0.0718117
0.0672341
0.0629425
0.058651
0.0537872
0.0492096
0.0452042
0.0403404
0.0369072
0.0340462
0.0311852
0.0283241
0.0268936
0.0254631
0.0228882
0.0214577
0.0208855
0.0205994
0.0203133
0.0188828
0.01688
0.0157356
0.0145912
0.0137329
0.0134468
0.0134468
0.0137329
0.014019
0.0151634
0.0148773
0.0145912
0.0151634
0.0154495
0.0145912
0.014019
0.0143051
0.0151634
0.0160217
0.0165939
0.0163078
0.0148773
0.0134468
0.011158
0.0088692
0.008297
0.0080109
0.0080109
0.0085831
0.0085831
0.008297
0.0088692
0.0102997
0.0120163
0.0125885
0.0128746
0.0128746
0.0128746
0.0131607
0.0137329
0.0151634
0.0171661
0.0163078
0.0148773
0.0163078
0.0185967
0.0200272
0.0211716
0.0217438
0.0220299
0.022316
0.0220299
0.0217438
0.0208855
0.0205994
0.0214577
0.022316
0.0226021
0.0226021
0.0240326
0.0254631
0.0257492
0.0254631
0.0257492
0.0263214
0.0277519
0.0288963
0.0303269
0.0326157
0.0357628
0.039196
0.0423431
0.0443459
0.0460625
0.0486374
0.0512123
0.0520706
0.0529289
0.0535011
0.0529289
0.0540733
0.0560761
0.0580788
0.0589371
0.0589371
0.0583649
0.0572205
0.0552178
0.0537872
0.0535011
0.0535011
0.0537872
0.0535011
0.0546456
0.0563622
0.0577927
0.0603676
0.0620842
0.0638008
0.0649452
0.0658035
0.0678063
0.0689507
0.0692368
0.0709534
0.0729561
0.0738144
0.0749588
0.0769615
0.0786782
0.0795365
0.0806809
0.0818253
0.0841141
0.0864029
0.0875473
0.0886917
0.0898361
0.0909805
0.0926972
0.0958443
0.0981331
0.1004219
0.1024246
0.103569
0.1041413
0.1055718
0.1072884
0.1092911
0.1110077
0.111866
0.111866
0.1130104
0.1144409
0.1152992
0.1155853
0.1158715
0.1155853
0.114727
0.1141548
0.114727
0.1152992
0.1161575
0.1158715
0.1155853
0.1155853
0.1167298
0.1181603
0.1195908
0.1193047
0.1181603
0.1187325
0.1198769
0.1207352
0.1215935
0.1224518
0.1218796
0.1207352
0.1193047
0.1175881
0.1170159
0.1170159
0.1170159
0.1161575
0.1144409
0.1130104
0.1130104
0.1130104
0.111866
0.1092911
0.1064301
0.1032829
0.100708
0.0987053
0.0967026
0.0944138
0.0915528
0.0884056
0.0864029
0.083828
0.0812531
0.0795365
0.0769615
0.0729561
0.0683785
0.0638008
0.0603676
0.0569344
0.0526428
0.0477791
0.0426293
0.0383377
0.0349045
0.0320435
0.0291824
0.0254631
0.0228882
0.0203133
0.0165939
0.0134468
0.0114441
0.0080109
0.002861
-0.0022888
-0.0077248
-0.0131607
-0.0174522
-0.0205994
-0.0240326
-0.028038
-0.0331879
-0.0383377
-0.042057
-0.0457764
-0.0489235
-0.0517845
-0.0549317
-0.058651
-0.0617981
-0.0638008
-0.0652313
-0.0672341
-0.0689507
-0.0709534
-0.0735283
-0.0761032
-0.0781059
-0.0798226
-0.0806809
-0.0815392
-0.0835419
-0.0861168
-0.0889778
-0.0915528
-0.0938416
-0.0958443
-0.0975609
-0.100708
-0.1021385
-0.1021385
-0.1018524
-0.1015663
-0.1018524
-0.1024246
-0.1021385
-0.1018524
-0.1027107
-0.1032829
-0.1032829
-0.1029968
-0.1015663
-0.100708
-0.1009941
-0.1024246
-0.1021385
-0.1018524
-0.1021385
-0.1024246
-0.1027107
-0.103569
-0.1038551
-0.1032829
-0.1018524
-0.1004219
-0.0987053
-0.0967026
-0.0952721
-0.0952721
-0.0964165
-0.0958443
-0.0946999
-0.0946999
-0.0955582
-0.0972748
-0.0987053
-0.1001358
-0.1012802
-0.1015663
-0.1021385
-0.1029968
-0.1032829
-0.1027107
-0.1027107
-0.103569
-0.1041413
-0.1038551
-0.1027107
-0.1021385
-0.1018524
-0.1027107
-0.1024246
-0.1015663
-0.1009941
-0.100708
-0.1001358
-0.0998497
-0.0987053
-0.0987053
-0.0998497
-0.1001358
-0.1001358
-0.0992775
-0.0987053
-0.0992775
-0.0995636
-0.0995636
-0.0992775
-0.100708
-0.1024246
-0.1021385
-0.1021385
-0.1024246
-0.1018524
-0.1009941
-0.0995636
-0.0964165
-0.0938416
-0.092125
-0.0906944
-0.08955
-0.0886917
-0.0884056
-0.0875473
-0.0855446
-0.0818253
-0.0781059
-0.0766754
-0.0746727
-0.0723839
-0.069809
-0.0672341
-0.0649452
-0.064373
-0.0640869
-0.0640869
-0.0632286
-0.0620842
-0.0612259
-0.0606537
-0.0600815
-0.0606537
-0.0612259
-0.0612259
-0.0609398
-0.0606537
-0.0600815
-0.0597954
-0.0597954
-0.0595093
-0.0592232
-0.0592232
-0.0589371
-0.0597954
-0.061512
-0.0623703
-0.0626564
-0.0632286
-0.0626564
-0.0623703
-0.0640869
-0.0655174
-0.0660896
-0.0658035
-0.064373
-0.0629425
-0.0620842
-0.061512
-0.0612259
-0.0606537
-0.0606537
-0.0603676
-0.0595093
-0.0595093
-0.0595093
-0.0603676
-0.0612259
-0.0612259
-0.0597954
-0.0583649
-0.0575066
-0.0577927
-0.0580788
-0.0595093
-0.0600815
-0.0597954
-0.0592232
-0.0583649
-0.0580788
-0.058651
-0.0592232
-0.058651
-0.0580788
-0.058651
-0.0580788
-0.0577927
-0.0569344
-0.05579
-0.0555039
-0.0555039
-0.0540733
-0.0526428
-0.0514984
-0.0509262
-0.0509262
-0.0509262
-0.0512123
-0.0514984
-0.0523567
-0.0526428
-0.0517845
-0.0512123
-0.0509262
-0.0500679
-0.0497818
-0.0497818
-0.0489235
-0.0489235
-0.0486374
-0.0486374
-0.0483513
-0.0480652
-0.0486374
-0.0486374
-0.0486374
-0.0486374
-0.0486374
-0.0489235
-0.0494957
-0.0500679
-0.0520706
-0.053215
-0.0529289
-0.0537872
-0.0549317
-0.05579
-0.0575066
-0.0592232
-0.0609398
-0.0629425
-0.064373
-0.0655174
-0.0663758
-0.0666618
-0.0672341
-0.0675202
-0.0675202
-0.0663758
-0.0649452
-0.0638008
-0.0635147
-0.0638008
-0.0655174
-0.0666618
-0.0672341
-0.0680924
-0.0678063
-0.0675202
-0.0675202
-0.0678063
-0.0692368
-0.0706673
-0.0715256
-0.0715256
-0.0712395
-0.0718117
-0.07267
-0.0735283
-0.0735283
-0.0723839
-0.0718117
-0.07267
-0.0738144
-0.0749588
-0.075531
-0.075531
-0.0761032
-0.0763893
-0.0761032
-0.0752449
-0.0752449
-0.0758171
-0.075531
-0.0758171
-0.0758171
-0.0743866
-0.0741005
-0.0741005
-0.0723839
-0.0706673
-0.0689507
-0.0683785
-0.0686646
-0.0680924
-0.0678063
-0.0666618
-0.0649452
-0.0626564
-0.0595093
-0.0560761
-0.0526428
-0.0497818
-0.0497818
-0.0500679
-0.0497818
-0.0500679
-0.0506401
-0.0517845
-0.0514984
-0.0509262
-0.050354
-0.0492096
-0.0489235
-0.0492096
-0.0489235
-0.0489235
-0.0492096
-0.0494957
-0.0497818
-0.0494957
-0.0494957
-0.0500679
-0.0500679
-0.0512123
-0.0517845
-0.0517845
-0.0514984
-0.0517845
-0.0523567
-0.0520706
-0.0517845
-0.0526428
-0.053215
-0.0535011
-0.0540733
-0.0535011
-0.0520706
-0.050354
-0.0497818
-0.0492096
-0.047493
-0.0460625
-0.0457764
-0.0463486
-0.0463486
-0.0452042
-0.0440598
-0.0443459
-0.0440598
-0.0437737
-0.0437737
-0.0437737
-0.0449181
-0.0469208
-0.0494957
-0.0506401
-0.0517845
-0.0540733
-0.0563622
-0.0577927
-0.0589371
-0.0603676
-0.0609398
-0.0617981
-0.0620842
-0.0617981
-0.0603676
-0.0600815
-0.0597954
-0.058651
-0.0569344
-0.0549317
-0.0537872
-0.0529289
-0.0512123
-0.0497818
-0.0489235
-0.0480652
-0.0463486
-0.0454903
-0.0440598
-0.0417709
-0.0403404
-0.0417709
-0.0429154
-0.0432015
-0.0437737
-0.0443459
-0.0454903
-0.0466347
-0.0480652
-0.0489235
-0.0494957
-0.050354
-0.0509262
-0.0517845
-0.0517845
-0.0517845
-0.0520706
-0.0529289
-0.0535011
-0.0537872
-0.0549317
-0.0566483
-0.058651
-0.0597954
-0.0603676
-0.0609398
-0.0617981
-0.0623703
-0.0620842
-0.061512
-0.0603676
-0.0595093
-0.0589371
-0.058651
-0.0577927
-0.05579
-0.0535011
-0.0526428
-0.0512123
-0.0494957
-0.0492096
-0.0500679
-0.0509262
-0.0509262
-0.0514984
-0.0523567
-0.0514984
-0.0506401
-0.0500679
-0.0492096
-0.0486374
-0.047493
-0.0469208
-0.0463486
-0.0440598
-0.0423431
-0.0411987
-0.0397682
-0.0371933
-0.0340462
-0.0317574
-0.0288963
-0.0266075
-0.0263214
-0.0257492
-0.0240326
-0.0217438
-0.0205994
-0.0205994
-0.0197411
-0.0183106
-0.0174522
-0.0165939
-0.0165939
-0.01688
-0.0177383
-0.0180245
-0.0177383
-0.0185967
-0.0200272
-0.0203133
-0.0205994
-0.0217438
-0.0234604
-0.0254631
-0.0274658
-0.0297546
-0.0323296
-0.0346184
-0.0369072
-0.0386238
-0.0403404
-0.0414848
-0.042057
-0.0417709
-0.0406265
-0.0374794
-0.033474
-0.0294685
-0.025177
-0.0200272
-0.0148773
-0.0094414
-0.0040054
0.0005722
0.0031471
0.0054359
0.0074387
0.0102997
0.0137329
0.0160217
0.0171661
0.0177383
0.01688
0.0154495
0.0137329
0.0131607
0.0125885
0.0128746
0.0123024
0.0088692
0.0051498
0.0022888
-0.0005722
-0.0031471
-0.0054359
-0.0088692
-0.0117302
-0.0145912
-0.0183106
-0.0220299
-0.0257492
-0.0288963
-0.0329018
-0.0377655
-0.0414848
-0.0440598
-0.0454903
-0.0472069
-0.0492096
-0.0509262
-0.0535011
-0.0560761
-0.0577927
-0.0589371
-0.0600815
-0.0603676
-0.0580788
-0.0546456
-0.0520706
-0.0500679
-0.0480652
-0.0472069
-0.0472069
-0.0469208
-0.0460625
-0.0449181
-0.0437737
-0.0434876
-0.0432015
-0.0429154
-0.0443459
-0.0457764
-0.0452042
-0.0454903
-0.0466347
-0.0472069
-0.0477791
-0.0483513
-0.0483513
-0.0480652
-0.0486374
-0.0500679
-0.0514984
-0.0526428
-0.0529289
-0.053215
-0.0543594
-0.0546456
-0.0540733
-0.053215
-0.0523567
-0.0509262
-0.0486374
-0.0460625
-0.0443459
-0.0423431
-0.0389099
-0.0337601
-0.0277519
-0.0200272
-0.0094414
0.0042915
0.0211716
0.0403404
0.0606537
0.080967
0.1012802
0.1215935
0.142479
0.1642227
0.1856804
0.2074242
0.229168
0.2486229
0.265503
0.2809525
0.2946854
0.3052712
0.3115654
0.3147126
0.3167153
0.3184319
0.3198624
0.3207207
0.3212929
0.321579
0.3207207
0.3181458
0.3152848
0.3098488
0.3021241
0.2923966
0.2798081
0.265503
0.2500535
0.2340317
0.2182961
0.2022744
0.1856804
0.1690865
0.1513481
0.134182
0.1187325
0.1038551
0.0909805
0.0801087
0.0703812
0.0632286
0.058651
0.0575066
0.0580788
0.0595093
0.0626564
0.066948
0.0715256
0.0761032
0.0795365
0.083828
0.0861168
0.0858307
0.0846863
0.0823975
0.0789642
0.0749588
0.0700951
0.066948
0.0640869
0.0609398
0.0575066
0.0540733
0.050354
0.0454903
0.0409126
0.0371933
0.0337601
0.0308991
0.0291824
0.0274658
0.0254631
0.0231743
0.019455
0.0165939
0.0134468
0.0100136
0.0080109
0.0068665
0.005722
0.0040054
0.0025749
0.0011444
-0.0005722
-0.0017166
-0.0017166
-0.0008583
0
0
0
0.0002861
0.0011444
0.0022888
0.0017166
0.0008583
0
-0.0005722
-0.0014305
-0.0020027
-0.0017166
-0.0002861
0
0
-0.0002861
-0.0005722
0
0.0014305
0.0025749
0.002861
0.0022888
0.0014305
0
-0.0008583
-0.0014305
-0.0020027
-0.0022888
-0.0020027
0
0.0034332
0.0062943
0.0077248
0.008297
0.0085831
0.008297
0.008297
0.0097275
0.0120163
0.0154495
0.0177383
0.0191689
0.019455
0.0205994
0.022316
0.0231743
0.022316
0.0214577
0.0214577
0.0211716
0.0208855
0.0208855
0.0208855
0.0208855
0.0191689
0.0163078
0.0137329
0.0134468
0.0148773
0.0163078
0.01688
0.0174522
0.0183106
0.0203133
0.0217438
0.0237465
0.0260353
0.0274658
0.0288963
0.0297546
0.0308991
0.0331879
0.0357628
0.039196
0.0423431
0.044632
0.0469208
0.0500679
0.0523567
0.0540733
0.05579
0.0577927
0.0589371
0.0595093
0.0600815
0.0606537
0.0606537
0.0609398
0.0609398
0.0617981
0.0623703
0.0609398
0.0592232
0.0597954
0.0606537
0.0629425
0.0658035
0.0680924
0.069809
0.0718117
0.0738144
0.075531
0.0769615
0.0795365
0.0818253
0.0832558
0.083828
0.0846863
0.0869751
0.08955
0.0904083
0.0892639
0.0889778
0.0904083
0.0918389
0.0929833
0.0944138
0.0964165
0.0989914
0.1015663
0.1029968
0.1047135
0.106144
0.1075745
0.1098633
0.1121521
0.114727
0.1167298
0.1195908
0.123024
0.125885
0.12846
0.131321
0.1330376
0.1333237
0.1338959
0.1338959
0.1347542
0.1353264
0.1358986
0.1364708
0.1358986
0.1347542
0.1327515
0.131321
0.1310349
0.1298905
0.1270294
0.125885
0.1250267
0.1247406
0.1233101
0.1207352
0.1178742
0.1144409
0.1110077
0.1075745
0.1038551
0.1012802
0.0984192
0.0958443
0.0938416
0.0918389
0.0901222
0.0889778
0.0858307
0.0818253
0.0781059
0.0749588
0.0729561
0.0715256
0.069809
0.0675202
0.0658035
0.0646591
0.0620842
0.0597954
0.0575066
0.0549317
0.0526428
0.0497818
0.0466347
0.0434876
0.0403404
0.0374794
0.0343323
0.0308991
0.0260353
0.0200272
0.0143051
0.0097275
0.0054359
0.0017166
-0.0022888
-0.0065804
-0.0091553
-0.0120163
-0.0145912
-0.0171661
-0.0188828
-0.0211716
-0.0240326
-0.0268936
-0.030613
-0.0346184
-0.036335
-0.0369072
-0.0377655
-0.0389099
-0.0411987
-0.0437737
-0.0466347
-0.050354
-0.0543594
-0.0577927
-0.0606537
-0.0635147
-0.0672341
-0.0715256
-0.0749588
-0.0761032
-0.0763893
-0.0781059
-0.0812531
-0.0849724
-0.0881195
-0.0901222
-0.0906944
-0.0901222
-0.0892639
-0.0884056
-0.0884056
-0.0889778
-0.0898361
-0.0904083
-0.0906944
-0.0915528
-0.0946999
-0.0981331
-0.1012802
-0.1021385
-0.1021385
-0.1027107
-0.103569
-0.1041413
-0.1049996
-0.1058579
-0.1064301
-0.1064301
-0.1067162
-0.106144
-0.1049996
-0.103569
-0.1024246
-0.1012802
-0.1004219
-0.0998497
-0.100708
-0.1012802
-0.100708
-0.0995636
-0.0987053
-0.0969887
-0.0952721
-0.0935555
-0.0909805
-0.0884056
-0.0881195
-0.0886917
-0.0892639
-0.0901222
-0.0904083
-0.0898361
-0.0878334
-0.0864029
-0.0858307
-0.086689
-0.0881195
-0.0881195
-0.0892639
-0.0904083
-0.0912667
-0.0926972
-0.0935555
-0.0926972
-0.092125
-0.0926972
-0.0929833
-0.0932694
-0.0932694
-0.0935555
-0.0926972
-0.0912667
-0.0901222
-0.0878334
-0.0869751
-0.0855446
-0.0832558
-0.0806809
-0.078392
-0.078392
-0.0786782
-0.0786782
-0.0778198
-0.0778198
-0.0778198
-0.0775337
-0.0775337
-0.0789642
-0.0815392
-0.0829697
-0.0832558
-0.0829697
-0.0803948
-0.0781059
-0.078392
-0.0789642
-0.078392
-0.0772476
-0.0766754
-0.0761032
-0.0746727
-0.0735283
-0.0732422
-0.0718117
-0.0703812
-0.0680924
-0.0666618
-0.0658035
-0.0640869
-0.0638008
-0.0626564
-0.0612259
-0.0597954
-0.0589371
-0.058651
-0.0592232
-0.0595093
-0.0606537
-0.0603676
-0.0597954
-0.0595093
-0.0589371
-0.058651
-0.0575066
-0.05579
-0.0546456
-0.0540733
-0.0546456
-0.0546456
-0.0546456
-0.0555039
-0.0563622
-0.0560761
-0.05579
-0.0555039
-0.0552178
-0.0543594
-0.0535011
-0.053215
-0.0535011
-0.0535011
-0.0537872
-0.0549317
-0.05579
-0.05579
-0.0566483
-0.0563622
-0.05579
-0.0549317
-0.0537872
-0.0526428
-0.0517845
-0.0520706
-0.0529289
-0.0540733
-0.0546456
-0.0529289
-0.0509262
-0.0497818
-0.0480652
-0.0469208
-0.0454903
-0.0440598
-0.0437737
-0.0434876
-0.0443459
-0.0460625
-0.0480652
-0.0500679
-0.050354
-0.0500679
-0.0497818
-0.0494957
-0.0509262
-0.0526428
-0.0523567
-0.0509262
-0.0494957
-0.0497818
-0.0497818
-0.0500679
-0.0512123
-0.050354
-0.0500679
-0.0497818
-0.0494957
-0.0500679
-0.0509262
-0.0520706
-0.0529289
-0.0517845
-0.0500679
-0.0492096
-0.0492096
-0.0492096
-0.0497818
-0.050354
-0.050354
-0.050354
-0.0509262
-0.0517845
-0.0517845
-0.0514984
-0.0514984
-0.0517845
-0.0517845
-0.0520706
-0.053215
-0.0549317
-0.0575066
-0.0589371
-0.0600815
-0.0597954
-0.0595093
-0.0600815
-0.0606537
-0.0609398
-0.0609398
-0.0612259
-0.061512
-0.061512
-0.0612259
-0.061512
-0.0609398
-0.0606537
-0.0592232
-0.0575066
-0.0563622
-0.0549317
-0.0543594
-0.0543594
-0.0535011
-0.0537872
-0.0549317
-0.0560761
-0.0569344
-0.0583649
-0.0595093
-0.0609398
-0.0620842
-0.0629425
-0.0626564
-0.0617981
-0.0612259
-0.0612259
-0.0626564
-0.0640869
-0.0652313
-0.0663758
-0.0678063
-0.0678063
-0.0672341
-0.0663758
-0.0660896
-0.0660896
-0.0666618
-0.0663758
-0.0649452
-0.0646591
-0.064373
-0.0635147
-0.0632286
-0.0629425
-0.0620842
-0.0617981
-0.0612259
-0.0597954
-0.0583649
-0.058651
-0.058651
-0.0580788
-0.0569344
-0.0549317
-0.053215
-0.0529289
-0.0529289
-0.053215
-0.0535011
-0.0526428
-0.0514984
-0.050354
-0.050354
-0.0506401
-0.0509262
-0.0514984
-0.0520706
-0.0523567
-0.0526428
-0.053215
-0.0546456
-0.05579
-0.0546456
-0.0526428
-0.0509262
-0.0494957
-0.0486374
-0.0486374
-0.0480652
-0.0472069
-0.0463486
-0.0472069
-0.0486374
-0.0497818
-0.0500679
-0.0494957
-0.0497818
-0.0500679
-0.0497818
-0.050354
-0.0494957
-0.0477791
-0.0466347
-0.0457764
-0.0454903
-0.0457764
-0.0454903
-0.044632
-0.0437737
-0.0432015
-0.042057
-0.0409126
-0.0406265
-0.0400543
-0.0386238
-0.0357628
-0.033474
-0.0331879
-0.0337601
-0.0346184
-0.0346184
-0.0349045
-0.0351906
-0.0360489
-0.0374794
-0.0386238
-0.0389099
-0.0389099
-0.0394821
-0.0403404
-0.0389099
-0.0374794
-0.0371933
-0.0369072
-0.0366211
-0.0357628
-0.0337601
-0.0326157
-0.0308991
-0.0297546
-0.0297546
-0.0288963
-0.0271797
-0.0254631
-0.0240326
-0.0240326
-0.0246048
-0.0263214
-0.0271797
-0.0260353
-0.0254631
-0.0260353
-0.0271797
-0.0283241
-0.0294685
-0.0308991
-0.0317574
-0.0326157
-0.033474
-0.0340462
-0.0357628
-0.0369072
-0.0366211
-0.0357628
-0.0337601
-0.0314713
-0.0303269
-0.0291824
-0.0271797
-0.0257492
-0.0248909
-0.025177
-0.0260353
-0.0268936
-0.0274658
-0.0291824
-0.0311852
-0.0308991
-0.030613
-0.0314713
-0.0314713
-0.0311852
-0.0323296
-0.0346184
-0.0366211
-0.0374794
-0.0374794
-0.0369072
-0.0357628
-0.0351906
-0.0351906
-0.0351906
-0.0337601
-0.0323296
-0.0323296
-0.0320435
-0.0311852
-0.030613
-0.0288963
-0.0257492
-0.022316
-0.0197411
-0.0183106
-0.0171661
-0.01688
-0.0174522
-0.0174522
-0.01688
-0.0165939
-0.0154495
-0.0145912
-0.0123024
-0.0105858
-0.0097275
-0.0085831
-0.008297
-0.008297
-0.0080109
-0.0068665
-0.005722
-0.0054359
-0.0054359
-0.0054359
-0.0040054
-0.0025749
-0.0017166
-0.0020027
-0.0034332
-0.0062943
-0.0100136
-0.0131607
-0.0148773
-0.0160217
-0.0185967
-0.0211716
-0.0228882
-0.0226021
-0.0208855
-0.0188828
-0.0165939
-0.0148773
-0.0145912
-0.014019
-0.0120163
-0.0085831
-0.0054359
-0.0022888
0.0017166
0.0048637
0.0074387
0.0120163
0.0180245
0.0231743
0.0257492
0.0266075
0.0268936
0.0266075
0.0263214
0.0266075
0.0263214
0.0248909
0.0228882
0.0226021
0.0234604
0.0234604
0.0231743
0.0226021
0.0208855
0.0171661
0.0125885
0.0085831
0.0040054
0
-0.0034332
-0.0074387
-0.0108719
-0.0137329
-0.0157356
-0.0188828
-0.0246048
-0.0297546
-0.0337601
-0.036335
-0.0383377
-0.0403404
-0.0417709
-0.0426293
-0.0437737
-0.0443459
-0.0443459
-0.0443459
-0.0440598
-0.0437737
-0.0437737
-0.044632
-0.044632
-0.0434876
-0.0417709
-0.0406265
-0.0397682
-0.0394821
-0.0389099
-0.0377655
-0.0366211
-0.0354767
-0.0354767
-0.0354767
-0.0360489
-0.0357628
-0.0351906
-0.0346184
-0.0340462
-0.0331879
-0.0317574
-0.0314713
-0.030613
-0.0300408
-0.0288963
-0.0268936
-0.0266075
-0.0263214
-0.0271797
-0.0271797
-0.0263214
-0.0260353
-0.0266075
-0.0271797
-0.0277519
-0.0277519
-0.028038
-0.0274658
-0.0231743
-0.0180245
-0.0102997
-0.0014305
0.0094414
0.0240326
0.0397682
0.0575066
0.0763893
0.0952721
0.1141548
0.1336098
0.1544953
0.1773835
0.2002716
0.2228737
0.2449036
0.2640725
0.2809525
0.2952576
0.3084183
0.3181458
0.3247262
0.329876
0.3344536
0.3373146
0.3387451
0.341034
0.3430367
0.3433228
0.3418923
0.3387451
0.3341675
0.3275872
0.3190041
0.3084183
0.2961159
0.2832413
0.2697945
0.257206
0.2437592
0.229168
0.2137184
0.1976967
0.1805306
0.1627922
0.1459122
0.131321
0.1181603
0.1067162
0.0972748
0.0909805
0.08955
0.0901222
0.0912667
0.0926972
0.0932694
0.0944138
0.0969887
0.0992775
0.1001358
0.1004219
0.1009941
0.100708
0.0989914
0.0972748
0.0958443
0.0932694
0.08955
0.0849724
0.0812531
0.0778198
0.0743866
0.0709534
0.0660896
0.0600815
0.0543594
0.0497818
0.0463486
0.0429154
0.0406265
0.0369072
0.0337601
0.0326157
0.0311852
0.0300408
0.0294685
0.0283241
0.0263214
0.0243187
0.0226021
0.0211716
0.0200272
0.019455
0.019455
0.0185967
0.0177383
0.01688
0.0163078
0.0143051
0.0128746
0.014019
0.0151634
0.0145912
0.0137329
0.0131607
0.0114441
0.0094414
0.0077248
0.0060081
0.0042915
0.0034332
0.0037193
0.0034332
0.0025749
0.0025749
0.0037193
0.0045776
0.0051498
0.0060081
0.0074387
0.0091553
0.0091553
0.0094414
0.0108719
0.011158
0.0105858
0.0100136
0.0097275
0.0102997
0.0114441
0.0125885
0.0131607
0.0143051
0.0163078
0.0174522
0.0191689
0.0205994
0.0211716
0.0228882
0.0248909
0.0257492
0.0257492
0.0260353
0.0263214
0.0274658
0.0291824
0.0303269
0.0308991
0.030613
0.0286102
0.025177
0.0231743
0.022316
0.0208855
0.019455
0.0185967
0.0171661
0.0165939
0.0177383
0.0191689
0.0197411
0.0185967
0.0177383
0.0171661
0.0174522
0.0191689
0.0226021
0.0263214
0.0288963
0.030613
0.0326157
0.0349045
0.0369072
0.0386238
0.0403404
0.0409126
0.0423431
0.044632
0.0469208
0.0477791
0.0483513
0.0489235
0.050354
0.0517845
0.0537872
0.0563622
0.0575066
0.0583649
0.0595093
0.0606537
0.0609398
0.0612259
0.0617981
0.0620842
0.061512
0.061512
0.0623703
0.0629425
0.064373
0.0649452
0.0655174
0.0666618
0.0692368
0.07267
0.0758171
0.0775337
0.0795365
0.0826836
0.0852585
0.0875473
0.0898361
0.092125
0.0941277
0.0958443
0.097847
0.0989914
0.1012802
0.1049996
0.109005
0.111866
0.1132965
0.1144409
0.1152992
0.1158715
0.1161575
0.1167298
0.1181603
0.1190186
0.1204491
0.1224518
0.1238823
0.125885
0.1293183
0.1330376
0.1338959
0.1336098
0.1333237
0.1330376
0.1338959
0.1367569
0.1390457
0.1393318
0.1384735
0.137043
0.1364708
0.1358986
0.1338959
0.1304627
0.1278878
0.1255989
0.1235962
0.1221657
0.1204491
0.1193047
0.1175881
0.114727
0.1107216
0.1070023
0.1041413
0.1012802
0.0984192
0.0952721
0.0929833
0.0918389
0.0904083
0.0884056
0.0861168
0.0829697
0.0801087
0.0772476
0.0741005
0.0715256
0.0686646
0.0646591
0.0609398
0.0575066
0.0543594
0.0494957
0.044632
0.0397682
0.0354767
0.0320435
0.0288963
0.0257492
0.0228882
0.0203133
0.0180245
0.0148773
0.0105858
0.0068665
0.0040054
0.0008583
-0.0031471
-0.0071526
-0.0105858
-0.0137329
-0.0185967
-0.0248909
-0.0300408
-0.0343323
-0.0366211
-0.0380516
-0.0397682
-0.0423431
-0.0457764
-0.0480652
-0.050354
-0.0537872
-0.0583649
-0.0632286
-0.0666618
-0.0692368
-0.0709534
-0.0735283
-0.0746727
-0.0758171
-0.0763893
-0.078392
-0.0826836
-0.0869751
-0.08955
-0.0912667
-0.0941277
-0.0964165
-0.097847
-0.0981331
-0.097847
-0.0984192
-0.100708
-0.1029968
-0.103569
-0.1029968
-0.1029968
-0.1041413
-0.1052857
-0.103569
-0.100708
-0.1001358
-0.1004219
-0.1004219
-0.100708
-0.1012802
-0.100708
-0.1001358
-0.0995636
-0.0987053
-0.0981331
-0.0981331
-0.0989914
-0.0995636
-0.0995636
-0.0989914
-0.1004219
-0.1015663
-0.1012802
-0.1001358
-0.0987053
-0.0984192
-0.0989914
-0.100708
-0.1024246
-0.103569
-0.103569
-0.1032829
-0.103569
-0.1029968
-0.1024246
-0.1021385
-0.1021385
-0.1009941
-0.0995636
-0.0992775
-0.100708
-0.1021385
-0.1024246
-0.1029968
-0.103569
-0.1041413
-0.1047135
-0.1052857
-0.1055718
-0.1052857
-0.1047135
-0.1029968
-0.1009941
-0.0992775
-0.0975609
-0.0964165
-0.094986
-0.092125
-0.0889778
-0.0864029
-0.0835419
-0.0821114
-0.080967
-0.0786782
-0.0766754
-0.0758171
-0.0746727
-0.0729561
-0.0720978
-0.0706673
-0.0678063
-0.0652313
-0.0638008
-0.0629425
-0.0620842
-0.0612259
-0.0609398
-0.0612259
-0.0612259
-0.0606537
-0.0597954
-0.0583649
-0.0560761
-0.0543594
-0.0529289
-0.0506401
-0.0497818
-0.0512123
-0.0523567
-0.0529289
-0.053215
-0.0549317
-0.0580788
-0.0603676
-0.0600815
-0.0580788
-0.0572205
-0.0566483
-0.0560761
-0.0555039
-0.0552178
-0.0549317
-0.0552178
-0.0552178
-0.0537872
-0.0520706
-0.0517845
-0.0512123
-0.0497818
-0.0480652
-0.0480652
-0.0492096
-0.0506401
-0.0509262
-0.0506401
-0.0512123
-0.0517845
-0.0509262
-0.0500679
-0.0497818
-0.0480652
-0.0463486
-0.0460625
-0.0454903
-0.0454903
-0.0460625
-0.0460625
-0.044632
-0.0437737
-0.0429154
-0.0423431
-0.0426293
-0.0423431
-0.0417709
-0.0417709
-0.0406265
-0.0394821
-0.0400543
-0.0414848
-0.0423431
-0.0426293
-0.0426293
-0.0426293
-0.0426293
-0.0434876
-0.0437737
-0.0437737
-0.0449181
-0.0469208
-0.0486374
-0.0489235
-0.047493
-0.0466347
-0.0469208
-0.0457764
-0.0440598
-0.0432015
-0.0429154
-0.0426293
-0.0432015
-0.0440598
-0.044632
-0.0469208
-0.0486374
-0.0480652
-0.0469208
-0.0460625
-0.0463486
-0.0486374
-0.050354
-0.0494957
-0.0486374
-0.0497818
-0.050354
-0.050354
-0.0512123
-0.0523567
-0.0535011
-0.0537872
-0.0523567
-0.0506401
-0.0512123
-0.0529289
-0.0537872
-0.0537872
-0.0523567
-0.0506401
-0.0512123
-0.0514984
-0.050354
-0.0494957
-0.0489235
-0.047493
-0.0454903
-0.0443459
-0.0437737
-0.0443459
-0.0457764
-0.0466347
-0.0463486
-0.0457764
-0.0440598
-0.0437737
-0.0443459
-0.044632
-0.0460625
-0.0486374
-0.0509262
-0.0529289
-0.0555039
-0.0580788
-0.0595093
-0.0612259
-0.0617981
-0.0617981
-0.0617981
-0.061512
-0.0620842
-0.0635147
-0.0638008
-0.0629425
-0.0620842
-0.0612259
-0.0600815
-0.0592232
-0.0583649
-0.0577927
-0.0575066
-0.0580788
-0.058651
-0.0592232
-0.0595093
-0.0595093
-0.058651
-0.0569344
-0.0540733
-0.0523567
-0.0523567
-0.0526428
-0.0529289
-0.0535011
-0.0535011
-0.0529289
-0.0529289
-0.0535011
-0.0543594
-0.0546456
-0.0552178
-0.0560761
-0.0572205
-0.0595093
-0.0617981
-0.0632286
-0.0629425
-0.0617981
-0.0603676
-0.0592232
-0.058651
-0.0589371
-0.0597954
-0.0595093
-0.0583649
-0.0566483
-0.0546456
-0.0540733
-0.0546456
-0.0546456
-0.0537872
-0.053215
-0.0537872
-0.0537872
-0.0514984
-0.0500679
-0.050354
-0.0497818
-0.0486374
-0.0483513
-0.0486374
-0.0480652
-0.047493
-0.0469208
-0.0443459
-0.0414848
-0.0380516
-0.0346184
-0.0314713
-0.0286102
-0.0277519
-0.0300408
-0.0317574
-0.0311852
-0.0308991
-0.0308991
-0.0308991
-0.0314713
-0.0326157
-0.0329018
-0.033474
-0.0343323
-0.0351906
-0.0357628
-0.0371933
-0.0377655
-0.0374794
-0.0360489
-0.0346184
-0.0337601
-0.0331879
-0.033474
-0.0346184
-0.0360489
-0.0371933
-0.0377655
-0.0380516
-0.0389099
-0.0397682
-0.0406265
-0.0409126
-0.0409126
-0.0409126
-0.0414848
-0.0429154
-0.0443459
-0.0452042
-0.0454903
-0.0460625
-0.0457764
-0.0457764
-0.0452042
-0.0449181
-0.0460625
-0.0472069
-0.047493
-0.0466347
-0.0457764
-0.0452042
-0.0437737
-0.0417709
-0.0409126
-0.0397682
-0.0386238
-0.0386238
-0.0374794
-0.0374794
-0.0383377
-0.0394821
-0.0400543
-0.039196
-0.0389099
-0.0397682
-0.0406265
-0.0409126
-0.0400543
-0.039196
-0.0389099
-0.0380516
-0.0377655
-0.0371933
-0.036335
-0.0371933
-0.039196
-0.039196
-0.0366211
-0.0343323
-0.033474
-0.0317574
-0.0294685
-0.0277519
-0.0263214
-0.0248909
-0.0237465
-0.0228882
-0.0211716
-0.019455
-0.0188828
-0.0185967
-0.0165939
-0.0131607
-0.0094414
-0.008297
-0.0080109
-0.0077248
-0.008297
-0.0080109
-0.0065804
-0.0045776
-0.0031471
-0.0025749
