Time(s),Ch4
0,-0.0449181
0.001,-0.0440598
0.002,-0.0434876
0.003,-0.0432015
0.004,-0.0432015
0.005,-0.044632
0.006,-0.0466347
0.007,-0.047493
0.008,-0.0480652
0.009,-0.0489235
0.01,-0.0500679
0.011,-0.050354
0.012,-0.0500679
0.013,-0.0486374
0.014,-0.0480652
0.015,-0.047493
0.016,-0.0472069
0.017,-0.0466347
0.018,-0.0463486
0.019,-0.0454903
0.02,-0.0452042
0.021,-0.0454903
0.022,-0.0452042
0.023,-0.0443459
0.024,-0.0432015
0.025,-0.0429154
0.026,-0.0429154
0.027,-0.042057
0.028,-0.0417709
0.029,-0.0429154
0.03,-0.0443459
0.031,-0.0449181
0.032,-0.0452042
0.033,-0.0460625
0.034,-0.047493
0.035,-0.0472069
0.036,-0.0466347
0.037,-0.0463486
0.038,-0.0457764
0.039,-0.044632
0.04,-0.0432015
0.041,-0.0432015
0.042,-0.0437737
0.043,-0.0437737
0.044,-0.0449181
0.045,-0.0460625
0.046,-0.0466347
0.047,-0.047493
0.048,-0.0477791
0.049,-0.0486374
0.05,-0.0489235
0.051,-0.0489235
0.052,-0.0492096
0.053,-0.0500679
0.054,-0.0512123
0.055,-0.0514984
0.056,-0.0514984
0.057,-0.0526428
0.058,-0.0537872
0.059,-0.0540733
0.06,-0.0546456
0.061,-0.0560761
0.062,-0.0580788
0.063,-0.0597954
0.064,-0.0609398
0.065,-0.0623703
0.066,-0.0638008
0.067,-0.0655174
0.068,-0.0666618
0.069,-0.0678063
0.07,-0.0675202
0.071,-0.0663758
0.072,-0.066948
0.073,-0.0686646
0.074,-0.0695229
0.075,-0.0703812
0.076,-0.0706673
0.077,-0.0715256
0.078,-0.0715256
0.079,-0.0712395
0.08,-0.0706673
0.081,-0.0706673
0.082,-0.0720978
0.083,-0.0723839
0.084,-0.0715256
0.085,-0.0715256
0.086,-0.0718117
0.087,-0.0715256
0.088,-0.07267
0.089,-0.0729561
0.09,-0.0718117
0.091,-0.0715256
0.092,-0.0709534
0.093,-0.0706673
0.094,-0.0715256
0.095,-0.0712395
0.096,-0.0706673
0.097,-0.0695229
0.098,-0.0689507
0.099,-0.0675202
0.1,-0.0672341
0.101,-0.0678063
0.102,-0.0678063
0.103,-0.0680924
0.104,-0.0686646
0.105,-0.0686646
0.106,-0.0680924
0.107,-0.0692368
0.108,-0.0706673
0.109,-0.0715256
0.11,-0.07267
0.111,-0.0732422
0.112,-0.0743866
0.113,-0.075531
0.114,-0.0766754
0.115,-0.0769615
0.116,-0.0772476
0.117,-0.0775337
0.118,-0.0778198
0.119,-0.0778198
0.12,-0.0775337
0.121,-0.0772476
0.122,-0.0763893
0.123,-0.0758171
0.124,-0.0761032
0.125,-0.0766754
0.126,-0.0772476
0.127,-0.0761032
0.128,-0.0738144
0.129,-0.0723839
0.13,-0.0709534
0.131,-0.0700951
0.132,-0.0700951
0.133,-0.069809
0.134,-0.069809
0.135,-0.0683785
0.136,-0.0666618
0.137,-0.0658035
0.138,-0.0649452
0.139,-0.0649452
0.14,-0.0658035
0.141,-0.0658035
0.142,-0.0632286
0.143,-0.0617981
0.144,-0.0629425
0.145,-0.0660896
0.146,-0.0678063
0.147,-0.0683785
0.148,-0.0695229
0.149,-0.0700951
0.15,-0.0706673
0.151,-0.0715256
0.152,-0.0729561
0.153,-0.0741005
0.154,-0.0732422
0.155,-0.0720978
0.156,-0.0709534
0.157,-0.069809
0.158,-0.0689507
0.159,-0.0695229
0.16,-0.0695229
0.161,-0.0689507
0.162,-0.0675202
0.163,-0.066948
0.164,-0.066948
0.165,-0.0660896
0.166,-0.0660896
0.167,-0.0649452
0.168,-0.0638008
0.169,-0.0632286
0.17,-0.0635147
0.171,-0.0649452
0.172,-0.0663758
0.173,-0.0663758
0.174,-0.0660896
0.175,-0.0646591
0.176,-0.0626564
0.177,-0.0635147
0.178,-0.064373
0.179,-0.064373
0.18,-0.064373
0.181,-0.064373
0.182,-0.0646591
0.183,-0.0652313
0.184,-0.0666618
0.185,-0.0663758
0.186,-0.0652313
0.187,-0.0638008
0.188,-0.0620842
0.189,-0.0606537
0.19,-0.0606537
0.191,-0.061512
0.192,-0.0629425
0.193,-0.0652313
0.194,-0.0655174
0.195,-0.0652313
0.196,-0.0660896
0.197,-0.0666618
0.198,-0.0678063
0.199,-0.069809
0.2,-0.0720978
0.201,-0.0720978
0.202,-0.0709534
0.203,-0.0700951
0.204,-0.0700951
0.205,-0.0700951
0.206,-0.069809
0.207,-0.0692368
0.208,-0.0689507
0.209,-0.0678063
0.21,-0.0652313
0.211,-0.0638008
0.212,-0.0629425
0.213,-0.0617981
0.214,-0.0617981
0.215,-0.0612259
0.216,-0.0597954
0.217,-0.0580788
0.218,-0.0575066
0.219,-0.0577927
0.22,-0.0583649
0.221,-0.0577927
0.222,-0.0572205
0.223,-0.0575066
0.224,-0.0583649
0.225,-0.0583649
0.226,-0.0589371
0.227,-0.0603676
0.228,-0.0612259
0.229,-0.0617981
0.23,-0.0620842
0.231,-0.0606537
0.232,-0.0600815
0.233,-0.0600815
0.234,-0.0597954
0.235,-0.0612259
0.236,-0.0632286
0.237,-0.0640869
0.238,-0.0646591
0.239,-0.0649452
0.24,-0.064373
0.241,-0.0646591
0.242,-0.0649452
0.243,-0.064373
0.244,-0.0655174
0.245,-0.0663758
0.246,-0.0675202
0.247,-0.0689507
0.248,-0.0703812
0.249,-0.0706673
0.25,-0.0700951
0.251,-0.0695229
0.252,-0.0675202
0.253,-0.0640869
0.254,-0.0603676
0.255,-0.0580788
0.256,-0.0560761
0.257,-0.0535011
0.258,-0.0509262
0.259,-0.0506401
0.26,-0.050354
0.261,-0.0486374
0.262,-0.0460625
0.263,-0.0432015
0.264,-0.0406265
0.265,-0.0383377
0.266,-0.0371933
0.267,-0.0357628
0.268,-0.033474
0.269,-0.0323296
0.27,-0.0326157
0.271,-0.0329018
0.272,-0.0326157
0.273,-0.0320435
0.274,-0.0320435
0.275,-0.0317574
0.276,-0.0311852
0.277,-0.0311852
0.278,-0.0317574
0.279,-0.033474
0.28,-0.036335
0.281,-0.0383377
0.282,-0.0409126
0.283,-0.0426293
0.284,-0.0440598
0.285,-0.0452042
0.286,-0.0454903
0.287,-0.0466347
0.288,-0.0483513
0.289,-0.0483513
0.29,-0.0489235
0.291,-0.0500679
0.292,-0.0509262
0.293,-0.0500679
0.294,-0.0477791
0.295,-0.0452042
0.296,-0.0432015
0.297,-0.0397682
0.298,-0.0360489
0.299,-0.0323296
0.3,-0.0283241
0.301,-0.0246048
0.302,-0.0208855
0.303,-0.0171661
0.304,-0.0134468
0.305,-0.0102997
0.306,-0.0074387
0.307,-0.005722
0.308,-0.0042915
0.309,-0.0031471
0.31,-0.002861
0.311,-0.0034332
0.312,-0.0048637
0.313,-0.0051498
0.314,-0.0048637
0.315,-0.0054359
0.316,-0.0060081
0.317,-0.0080109
0.318,-0.011158
0.319,-0.0134468
0.32,-0.0154495
0.321,-0.0171661
0.322,-0.0183106
0.323,-0.0203133
0.324,-0.0234604
0.325,-0.025177
0.326,-0.0260353
0.327,-0.028038
0.328,-0.0317574
0.329,-0.0354767
0.33,-0.0397682
0.331,-0.0440598
0.332,-0.0477791
0.333,-0.0512123
0.334,-0.053215
0.335,-0.0549317
0.336,-0.0572205
0.337,-0.0603676
0.338,-0.0623703
0.339,-0.0640869
0.34,-0.0660896
0.341,-0.0666618
0.342,-0.0675202
0.343,-0.0689507
0.344,-0.0692368
0.345,-0.0692368
0.346,-0.0678063
0.347,-0.0658035
0.348,-0.0638008
0.349,-0.0620842
0.35,-0.0606537
0.351,-0.0595093
0.352,-0.0589371
0.353,-0.0566483
0.354,-0.053215
0.355,-0.0509262
0.356,-0.0509262
0.357,-0.0500679
0.358,-0.0500679
0.359,-0.0500679
0.36,-0.0512123
0.361,-0.0523567
0.362,-0.0520706
0.363,-0.0517845
0.364,-0.0523567
0.365,-0.0540733
0.366,-0.0549317
0.367,-0.0555039
0.368,-0.0549317
0.369,-0.0537872
0.37,-0.0535011
0.371,-0.0540733
0.372,-0.0537872
0.373,-0.0520706
0.374,-0.0506401
0.375,-0.0494957
0.376,-0.047493
0.377,-0.0449181
0.378,-0.0429154
0.379,-0.0426293
0.38,-0.0440598
0.381,-0.0443459
0.382,-0.0434876
0.383,-0.0426293
0.384,-0.0426293
0.385,-0.0406265
0.386,-0.0357628
0.387,-0.0288963
0.388,-0.0203133
0.389,-0.0117302
0.39,-0.0017166
0.391,0.0100136
0.392,0.0234604
0.393,0.0389099
0.394,0.0555039
0.395,0.0743866
0.396,0.0938416
0.397,0.1135826
0.398,0.1327515
0.399,0.1519203
0.4,0.1708031
0.401,0.1911164
0.402,0.2108574
0.403,0.2268791
0.404,0.2400399
0.405,0.2509117
0.406,0.2609253
0.407,0.2695084
0.408,0.2752304
0.409,0.279522
0.41,0.282383
0.411,0.2846718
0.412,0.2855301
0.413,0.2866745
0.414,0.2912522
0.415,0.296402
0.416,0.298977
0.417,0.2992631
0.418,0.2969742
0.419,0.2926827
0.42,0.2872467
0.421,0.2803803
0.422,0.2709389
0.423,0.260067
0.424,0.2483368
0.425,0.2366066
0.426,0.2251625
0.427,0.2111435
0.428,0.1968384
0.429,0.1828194
0.43,0.1682282
0.431,0.1522064
0.432,0.1379013
0.433,0.1264572
0.434,0.1164437
0.435,0.1075745
0.436,0.1004219
0.437,0.0961304
0.438,0.0941277
0.439,0.0952721
0.44,0.0969887
0.441,0.0984192
0.442,0.0987053
0.443,0.0984192
0.444,0.1001358
0.445,0.1018524
0.446,0.1029968
0.447,0.1029968
0.448,0.1024246
0.449,0.1004219
0.45,0.0961304
0.451,0.092125
0.452,0.0889778
0.453,0.0861168
0.454,0.0818253
0.455,0.0766754
0.456,0.0720978
0.457,0.0680924
0.458,0.0649452
0.459,0.0629425
0.46,0.0600815
0.461,0.0563622
0.462,0.0514984
0.463,0.0466347
0.464,0.0434876
0.465,0.0406265
0.466,0.0369072
0.467,0.0326157
0.468,0.0283241
0.469,0.0234604
0.47,0.0180245
0.471,0.014019
0.472,0.0117302
0.473,0.0085831
0.474,0.0051498
0.475,0.0017166
0.476,-0.0017166
0.477,-0.0045776
0.478,-0.0068665
0.479,-0.008297
0.48,-0.0088692
0.481,-0.0100136
0.482,-0.0114441
0.483,-0.0125885
0.484,-0.0125885
0.485,-0.0114441
0.486,-0.0094414
0.487,-0.0071526
0.488,-0.0054359
0.489,-0.0025749
0.49,-0.0002861
0.491,0.0022888
0.492,0.0048637
0.493,0.0074387
0.494,0.0094414
0.495,0.011158
0.496,0.0123024
0.497,0.0128746
0.498,0.0143051
0.499,0.0154495
0.5,0.0160217
0.501,0.01688
0.502,0.0185967
0.503,0.0205994
0.504,0.0217438
0.505,0.0220299
0.506,0.0208855
0.507,0.0183106
0.508,0.0171661
0.509,0.0177383
0.51,0.0188828
0.511,0.0203133
0.512,0.0203133
0.513,0.0197411
0.514,0.0203133
0.515,0.0208855
0.516,0.0211716
0.517,0.0217438
0.518,0.022316
0.519,0.0226021
0.52,0.022316
0.521,0.0234604
0.522,0.0257492
0.523,0.0286102
0.524,0.0317574
0.525,0.0331879
0.526,0.0329018
0.527,0.0323296
0.528,0.0317574
0.529,0.0320435
0.53,0.033474
0.531,0.0346184
0.532,0.0351906
0.533,0.0366211
0.534,0.0386238
0.535,0.0397682
0.536,0.0411987
0.537,0.0426293
0.538,0.0423431
0.539,0.0411987
0.54,0.0397682
0.541,0.0383377
0.542,0.0371933
0.543,0.0371933
0.544,0.0366211
0.545,0.0360489
0.546,0.0354767
0.547,0.0357628
0.548,0.0366211
0.549,0.0366211
0.55,0.0354767
0.551,0.0357628
0.552,0.0377655
0.553,0.0386238
0.554,0.0400543
0.555,0.0426293
0.556,0.0440598
0.557,0.0449181
0.558,0.0460625
0.559,0.0469208
0.56,0.0466347
0.561,0.0469208
0.562,0.047493
0.563,0.0480652
0.564,0.0492096
0.565,0.0509262
0.566,0.0523567
0.567,0.0540733
0.568,0.0549317
0.569,0.0555039
0.57,0.0563622
0.571,0.0575066
0.572,0.0592232
0.573,0.0612259
0.574,0.0632286
0.575,0.0658035
0.576,0.0678063
0.577,0.0689507
0.578,0.0700951
0.579,0.0706673
0.58,0.0718117
0.581,0.0718117
0.582,0.0720978
0.583,0.0732422
0.584,0.0746727
0.585,0.0763893
0.586,0.0778198
0.587,0.0792504
0.588,0.0803948
0.589,0.0803948
0.59,0.0798226
0.591,0.0801087
0.592,0.080967
0.593,0.0821114
0.594,0.0835419
0.595,0.0852585
0.596,0.0878334
0.597,0.0901222
0.598,0.0932694
0.599,0.0952721
0.6,0.0975609
0.601,0.1015663
0.602,0.1047135
0.603,0.1078606
0.604,0.1101494
0.605,0.1124382
0.606,0.1164437
0.607,0.1207352
0.608,0.1238823
0.609,0.1253128
0.61,0.1270294
0.611,0.1290321
0.612,0.1307488
0.613,0.1316071
0.614,0.1327515
0.615,0.1330376
0.616,0.1324654
0.617,0.1318932
0.618,0.1304627
0.619,0.1304627
0.62,0.1310349
0.621,0.1307488
0.622,0.1304627
0.623,0.1290321
0.624,0.1273155
0.625,0.125885
0.626,0.1247406
0.627,0.1250267
0.628,0.1250267
0.629,0.1241684
0.63,0.1250267
0.631,0.1250267
0.632,0.1241684
0.633,0.1244545
0.634,0.1238823
0.635,0.123024
0.636,0.1210213
0.637,0.1190186
0.638,0.1181603
0.639,0.1175881
0.64,0.1164437
0.641,0.1155853
0.642,0.1138687
0.643,0.1121521
0.644,0.109005
0.645,0.106144
0.646,0.1038551
0.647,0.0998497
0.648,0.0958443
0.649,0.0932694
0.65,0.0892639
0.651,0.0846863
0.652,0.0803948
0.653,0.0769615
0.654,0.0738144
0.655,0.0695229
0.656,0.0646591
0.657,0.0603676
0.658,0.0563622
0.659,0.0526428
0.66,0.0483513
0.661,0.0440598
0.662,0.0394821
0.663,0.0349045
0.664,0.0311852
0.665,0.0271797
0.666,0.0228882
0.667,0.0191689
0.668,0.0160217
0.669,0.0131607
0.67,0.0094414
0.671,0.0054359
0.672,0.0017166
0.673,-0.0014305
0.674,-0.0042915
0.675,-0.0062943
0.676,-0.0088692
0.677,-0.0114441
0.678,-0.0145912
0.679,-0.0171661
0.68,-0.0197411
0.681,-0.0231743
0.682,-0.0266075
0.683,-0.0303269
0.684,-0.0340462
0.685,-0.0374794
0.686,-0.0389099
0.687,-0.0409126
0.688,-0.0432015
0.689,-0.0454903
0.69,-0.0492096
0.691,-0.0537872
0.692,-0.0589371
0.693,-0.0640869
0.694,-0.0686646
0.695,-0.0738144
0.696,-0.0786782
0.697,-0.0823975
0.698,-0.083828
0.699,-0.0846863
0.7,-0.086689
0.701,-0.0878334
0.702,-0.0884056
0.703,-0.0901222
0.704,-0.0909805
0.705,-0.0918389
0.706,-0.0935555
0.707,-0.0946999
0.708,-0.0958443
0.709,-0.0961304
0.71,-0.0964165
0.711,-0.0972748
0.712,-0.0972748
0.713,-0.0975609
0.714,-0.0981331
0.715,-0.0995636
0.716,-0.1012802
0.717,-0.1024246
0.718,-0.103569
0.719,-0.1044274
0.72,-0.1055718
0.721,-0.1064301
0.722,-0.1067162
0.723,-0.1058579
0.724,-0.1041413
0.725,-0.1038551
0.726,-0.1049996
0.727,-0.1055718
0.728,-0.1070023
0.729,-0.109005
0.73,-0.1095772
0.731,-0.1112938
0.732,-0.1138687
0.733,-0.1152992
0.734,-0.1170159
0.735,-0.1187325
0.736,-0.1204491
0.737,-0.1213074
0.738,-0.1215935
0.739,-0.1233101
0.74,-0.1255989
0.741,-0.1278878
0.742,-0.1293183
0.743,-0.131321
0.744,-0.1333237
0.745,-0.1336098
0.746,-0.1330376
0.747,-0.1327515
0.748,-0.1327515
0.749,-0.1324654
0.75,-0.1316071
0.751,-0.1290321
0.752,-0.1261711
0.753,-0.1238823
0.754,-0.1224518
0.755,-0.1215935
0.756,-0.1184464
0.757,-0.1152992
0.758,-0.1138687
0.759,-0.111866
0.76,-0.1084328
0.761,-0.1041413
0.762,-0.1001358
0.763,-0.0958443
0.764,-0.092125
0.765,-0.0898361
0.766,-0.0884056
0.767,-0.0901222
0.768,-0.0944138
0.769,-0.0987053
0.77,-0.1024246
0.771,-0.1058579
0.772,-0.109005
0.773,-0.1132965
0.774,-0.1167298
0.775,-0.1164437
0.776,-0.1150131
0.777,-0.1135826
0.778,-0.1130104
0.779,-0.1132965
0.78,-0.1138687
0.781,-0.1135826
0.782,-0.1127243
0.783,-0.1135826
0.784,-0.1152992
0.785,-0.1152992
0.786,-0.1150131
0.787,-0.1152992
0.788,-0.1158715
0.789,-0.1152992
0.79,-0.114727
0.791,-0.1132965
0.792,-0.1115799
0.793,-0.1107216
0.794,-0.1098633
0.795,-0.1101494
0.796,-0.1098633
0.797,-0.1092911
0.798,-0.1087189
0.799,-0.1081467
0.8,-0.1081467
0.801,-0.1072884
0.802,-0.1064301
0.803,-0.1055718
0.804,-0.1027107
0.805,-0.0995636
0.806,-0.0972748
0.807,-0.0955582
0.808,-0.0926972
0.809,-0.08955
0.81,-0.0864029
0.811,-0.0835419
0.812,-0.0818253
0.813,-0.080967
0.814,-0.0803948
0.815,-0.0801087
0.816,-0.080967
0.817,-0.0818253
0.818,-0.0829697
0.819,-0.0835419
0.82,-0.0823975
0.821,-0.0815392
0.822,-0.0806809
0.823,-0.080967
0.824,-0.0806809
0.825,-0.0792504
0.826,-0.0775337
0.827,-0.0763893
0.828,-0.0761032
0.829,-0.0749588
0.83,-0.0732422
0.831,-0.0712395
0.832,-0.0689507
0.833,-0.0683785
0.834,-0.0675202
0.835,-0.0658035
0.836,-0.0638008
0.837,-0.0626564
0.838,-0.0620842
0.839,-0.0626564
0.84,-0.0617981
0.841,-0.0592232
0.842,-0.0569344
0.843,-0.0577927
0.844,-0.0589371
0.845,-0.0603676
0.846,-0.0606537
0.847,-0.0606537
0.848,-0.0609398
0.849,-0.0632286
0.85,-0.0649452
0.851,-0.0658035
0.852,-0.0649452
0.853,-0.0635147
0.854,-0.0632286
0.855,-0.0626564
0.856,-0.061512
0.857,-0.0612259
0.858,-0.0612259
0.859,-0.0612259
0.86,-0.0620842
0.861,-0.0629425
0.862,-0.0632286
0.863,-0.0638008
0.864,-0.0646591
0.865,-0.0658035
0.866,-0.0678063
0.867,-0.0695229
0.868,-0.0692368
0.869,-0.0686646
0.87,-0.0689507
0.871,-0.066948
0.872,-0.0649452
0.873,-0.0649452
0.874,-0.0640869
0.875,-0.0620842
0.876,-0.061512
0.877,-0.0606537
0.878,-0.0606537
0.879,-0.0609398
0.88,-0.0603676
0.881,-0.0597954
0.882,-0.0592232
0.883,-0.0595093
0.884,-0.0589371
0.885,-0.058651
0.886,-0.0583649
0.887,-0.0580788
0.888,-0.058651
0.889,-0.0592232
0.89,-0.058651
0.891,-0.0577927
0.892,-0.0577927
0.893,-0.0580788
0.894,-0.0592232
0.895,-0.0603676
0.896,-0.0629425
0.897,-0.0660896
0.898,-0.066948
0.899,-0.0675202
0.9,-0.0683785
0.901,-0.0689507
0.902,-0.0692368
0.903,-0.0683785
0.904,-0.0672341
0.905,-0.0666618
0.906,-0.066948
0.907,-0.0680924
0.908,-0.0680924
0.909,-0.0683785
0.91,-0.0692368
0.911,-0.0695229
0.912,-0.0692368
0.913,-0.0675202
0.914,-0.0655174
0.915,-0.0666618
0.916,-0.0703812
0.917,-0.0732422
0.918,-0.0741005
0.919,-0.0735283
0.92,-0.0732422
0.921,-0.0741005
0.922,-0.0746727
0.923,-0.0741005
0.924,-0.0735283
0.925,-0.0729561
0.926,-0.0732422
0.927,-0.0741005
0.928,-0.0746727
0.929,-0.0752449
0.93,-0.0763893
0.931,-0.0778198
0.932,-0.0781059
0.933,-0.0778198
0.934,-0.0775337
0.935,-0.0772476
0.936,-0.0766754
0.937,-0.0769615
0.938,-0.0766754
0.939,-0.0769615
0.94,-0.0772476
0.941,-0.0763893
0.942,-0.0743866
0.943,-0.0723839
0.944,-0.0712395
0.945,-0.0706673
0.946,-0.0706673
0.947,-0.0703812
0.948,-0.0692368
0.949,-0.0692368
0.95,-0.0692368
0.951,-0.0692368
0.952,-0.0695229
0.953,-0.0689507
0.954,-0.0683785
0.955,-0.0678063
0.956,-0.0652313
0.957,-0.0632286
0.958,-0.0612259
0.959,-0.0597954
0.96,-0.0592232
0.961,-0.0589371
0.962,-0.058651
0.963,-0.058651
0.964,-0.0577927
0.965,-0.0577927
0.966,-0.0592232
0.967,-0.0612259
0.968,-0.061512
0.969,-0.0609398
0.97,-0.0606537
0.971,-0.0609398
0.972,-0.0617981
0.973,-0.064373
0.974,-0.0675202
0.975,-0.0689507
0.976,-0.0706673
0.977,-0.0735283
0.978,-0.0766754
0.979,-0.0795365
0.98,-0.0806809
0.981,-0.0829697
0.982,-0.0858307
0.983,-0.0889778
0.984,-0.0904083
0.985,-0.0924111
0.986,-0.0929833
0.987,-0.0929833
0.988,-0.0918389
0.989,-0.0906944
0.99,-0.0901222
0.991,-0.0875473
0.992,-0.0846863
0.993,-0.083828
0.994,-0.0841141
0.995,-0.0832558
0.996,-0.0815392
0.997,-0.0801087
0.998,-0.0795365
0.999,-0.0803948
1,-0.080967
1.001,-0.0801087
1.002,-0.0781059
1.003,-0.0761032
1.004,-0.0749588
1.005,-0.0752449
1.006,-0.0746727
1.007,-0.0729561
1.008,-0.0729561
1.009,-0.0738144
1.01,-0.0729561
1.011,-0.0695229
1.012,-0.0686646
1.013,-0.0695229
1.014,-0.0695229
1.015,-0.0680924
1.016,-0.0646591
1.017,-0.0606537
1.018,-0.0563622
1.019,-0.0523567
1.02,-0.0492096
1.021,-0.0454903
1.022,-0.0411987
1.023,-0.0389099
1.024,-0.0377655
1.025,-0.0369072
1.026,-0.0380516
1.027,-0.042057
1.028,-0.0492096
1.029,-0.0546456
1.03,-0.0575066
1.031,-0.0609398
1.032,-0.0638008
1.033,-0.0660896
1.034,-0.0663758
1.035,-0.0649452
1.036,-0.0626564
1.037,-0.0600815
1.038,-0.0583649
1.039,-0.0572205
1.04,-0.05579
1.041,-0.0543594
1.042,-0.0535011
1.043,-0.0540733
1.044,-0.0540733
1.045,-0.0535011
1.046,-0.0523567
1.047,-0.0517845
1.048,-0.0517845
1.049,-0.0523567
1.05,-0.0523567
1.051,-0.0523567
1.052,-0.0523567
1.053,-0.0523567
1.054,-0.053215
1.055,-0.0546456
1.056,-0.0563622
1.057,-0.0572205
1.058,-0.0589371
1.059,-0.0612259
1.06,-0.0626564
1.061,-0.0635147
1.062,-0.0638008
1.063,-0.0640869
1.064,-0.0640869
1.065,-0.0635147
1.066,-0.0626564
1.067,-0.0617981
1.068,-0.0595093
1.069,-0.0575066
1.07,-0.05579
1.071,-0.0540733
1.072,-0.0520706
1.073,-0.0506401
1.074,-0.0509262
1.075,-0.0509262
1.076,-0.0500679
1.077,-0.0497818
1.078,-0.0492096
1.079,-0.0489235
1.08,-0.0483513
1.081,-0.0477791
1.082,-0.047493
1.083,-0.0463486
1.084,-0.044632
1.085,-0.0437737
1.086,-0.0423431
1.087,-0.0406265
1.088,-0.0389099
1.089,-0.0380516
1.09,-0.0371933
1.091,-0.036335
1.092,-0.0354767
1.093,-0.0346184
1.094,-0.0343323
1.095,-0.0346184
1.096,-0.0329018
1.097,-0.0317574
1.098,-0.030613
1.099,-0.0286102
1.1,-0.0274658
1.101,-0.0257492
1.102,-0.0240326
1.103,-0.0220299
1.104,-0.0205994
1.105,-0.0203133
1.106,-0.0197411
1.107,-0.0188828
1.108,-0.0174522
1.109,-0.0163078
1.11,-0.0163078
1.111,-0.0160217
1.112,-0.0163078
1.113,-0.0183106
1.114,-0.0211716
1.115,-0.0248909
1.116,-0.0291824
1.117,-0.0314713
1.118,-0.0331879
1.119,-0.0351906
1.12,-0.0377655
1.121,-0.0411987
1.122,-0.0423431
1.123,-0.0423431
1.124,-0.0411987
1.125,-0.0403404
1.126,-0.0394821
1.127,-0.0389099
1.128,-0.0374794
1.129,-0.0349045
1.13,-0.0320435
1.131,-0.028038
1.132,-0.0226021
1.133,-0.0165939
1.134,-0.0120163
1.135,-0.0088692
1.136,-0.0062943
1.137,-0.0037193
1.138,-0.0005722
1.139,0.0011444
1.14,0.0020027
1.141,0.0020027
1.142,0.0031471
1.143,0.0042915
1.144,0.0040054
1.145,0.0022888
1.146,0.0011444
1.147,0.0002861
1.148,0
1.149,-0.0002861
1.15,-0.0017166
1.151,-0.0034332
1.152,-0.0042915
1.153,-0.0054359
1.154,-0.0054359
1.155,-0.0060081
1.156,-0.0071526
1.157,-0.0097275
1.158,-0.0125885
1.159,-0.0163078
1.16,-0.0203133
1.161,-0.0237465
1.162,-0.0257492
1.163,-0.0277519
1.164,-0.0297546
1.165,-0.0329018
1.166,-0.036335
1.167,-0.0377655
1.168,-0.039196
1.169,-0.0409126
1.17,-0.0429154
1.171,-0.0454903
1.172,-0.0489235
1.173,-0.0512123
1.174,-0.0535011
1.175,-0.0560761
1.176,-0.0583649
1.177,-0.0600815
1.178,-0.061512
1.179,-0.0626564
1.18,-0.0638008
1.181,-0.0646591
1.182,-0.0632286
1.183,-0.0617981
1.184,-0.061512
1.185,-0.0603676
1.186,-0.0597954
1.187,-0.0589371
1.188,-0.0589371
1.189,-0.0580788
1.19,-0.0569344
1.191,-0.0552178
1.192,-0.0535011
1.193,-0.0520706
1.194,-0.0506401
1.195,-0.0486374
1.196,-0.0469208
1.197,-0.0449181
1.198,-0.0426293
1.199,-0.0409126
1.2,-0.039196
1.201,-0.0360489
1.202,-0.0340462
1.203,-0.0329018
1.204,-0.0323296
1.205,-0.0311852
1.206,-0.0308991
1.207,-0.0311852
1.208,-0.0317574
1.209,-0.0329018
1.21,-0.0337601
1.211,-0.0337601
1.212,-0.033474
1.213,-0.0331879
1.214,-0.0320435
1.215,-0.0326157
1.216,-0.0337601
1.217,-0.0337601
1.218,-0.033474
1.219,-0.0308991
1.22,-0.0248909
1.221,-0.01688
1.222,-0.0074387
1.223,0.0031471
1.224,0.0165939
1.225,0.0331879
1.226,0.0526428
1.227,0.0729561
1.228,0.0926972
1.229,0.1110077
1.23,0.1310349
1.231,0.1522064
1.232,0.1748085
1.233,0.198555
1.234,0.2217293
1.235,0.2426148
1.236,0.260067
1.237,0.2749444
1.238,0.287819
1.239,0.2986908
1.24,0.3064156
1.241,0.3107072
1.242,0.3129959
1.243,0.3141404
1.244,0.3152848
1.245,0.3172875
1.246,0.3204346
1.247,0.3227234
1.248,0.3224373
1.249,0.3201485
1.25,0.3152848
1.251,0.3089905
1.252,0.3021241
1.253,0.2938271
1.254,0.2818108
1.255,0.2689362
1.256,0.2552033
1.257,0.2411843
1.258,0.2268791
1.259,0.2114296
1.26,0.1954079
1.261,0.1793862
1.262,0.1625061
1.263,0.14534
1.264,0.1290321
1.265,0.1135826
1.266,0.0998497
1.267,0.0878334
1.268,0.0786782
1.269,0.0718117
1.27,0.0678063
1.271,0.0675202
1.272,0.0689507
1.273,0.0703812
1.274,0.0723839
1.275,0.0758171
1.276,0.0801087
1.277,0.0841141
1.278,0.0861168
1.279,0.0884056
1.28,0.08955
1.281,0.0901222
1.282,0.08955
1.283,0.0881195
1.284,0.0872612
1.285,0.0852585
1.286,0.0823975
1.287,0.0798226
1.288,0.0763893
1.289,0.0723839
1.29,0.0692368
1.291,0.066948
1.292,0.0640869
1.293,0.0600815
1.294,0.0552178
1.295,0.0520706
1.296,0.050354
1.297,0.0497818
1.298,0.0494957
1.299,0.0489235
1.3,0.0480652
1.301,0.0472069
1.302,0.0466347
1.303,0.0457764
1.304,0.044632
1.305,0.0432015
1.306,0.0409126
1.307,0.0371933
1.308,0.033474
1.309,0.0317574
1.31,0.0303269
1.311,0.0297546
1.312,0.0274658
1.313,0.0248909
1.314,0.0234604
1.315,0.022316
1.316,0.0220299
1.317,0.0220299
1.318,0.0217438
1.319,0.0205994
1.32,0.0185967
1.321,0.0160217
1.322,0.0145912
1.323,0.0148773
1.324,0.0165939
1.325,0.0174522
1.326,0.0163078
1.327,0.0151634
1.328,0.014019
1.329,0.0143051
1.33,0.0143051
1.331,0.0134468
1.332,0.0120163
1.333,0.0105858
1.334,0.0102997
1.335,0.0100136
1.336,0.0102997
1.337,0.0117302
1.338,0.0125885
1.339,0.0117302
1.34,0.0102997
1.341,0.0091553
1.342,0.0091553
1.343,0.0102997
1.344,0.0120163
1.345,0.0145912
1.346,0.0160217
1.347,0.0174522
1.348,0.0188828
1.349,0.0197411
1.35,0.0208855
1.351,0.0217438
1.352,0.0228882
1.353,0.0234604
1.354,0.0231743
1.355,0.0237465
1.356,0.0254631
1.357,0.0271797
1.358,0.0283241
1.359,0.0277519
1.36,0.0260353
1.361,0.0248909
1.362,0.0240326
1.363,0.0234604
1.364,0.0234604
1.365,0.0237465
1.366,0.0243187
1.367,0.0260353
1.368,0.0277519
1.369,0.0297546
1.37,0.0294685
1.371,0.0294685
1.372,0.0308991
1.373,0.0317574
1.374,0.0320435
1.375,0.0331879
1.376,0.0346184
1.377,0.0366211
1.378,0.0366211
1.379,0.0357628
1.38,0.0346184
1.381,0.0337601
1.382,0.0340462
1.383,0.0354767
1.384,0.036335
1.385,0.0369072
1.386,0.0369072
1.387,0.0383377
1.388,0.0394821
1.389,0.0389099
1.39,0.039196
1.391,0.0394821
1.392,0.0394821
1.393,0.0383377
1.394,0.0374794
1.395,0.0397682
1.396,0.0426293
1.397,0.0457764
1.398,0.0489235
1.399,0.050354
1.4,0.0520706
1.401,0.0543594
1.402,0.0566483
1.403,0.0589371
1.404,0.0620842
1.405,0.0652313
1.406,0.0692368
1.407,0.0718117
1.408,0.0738144
1.409,0.0752449
1.41,0.078392
1.411,0.0812531
1.412,0.0829697
1.413,0.0841141
1.414,0.0861168
1.415,0.0884056
1.416,0.0912667
1.417,0.0932694
1.418,0.0952721
1.419,0.0969887
1.42,0.0984192
1.421,0.0995636
1.422,0.1001358
1.423,0.0989914
1.424,0.0989914
1.425,0.100708
1.426,0.1024246
1.427,0.1029968
1.428,0.1047135
1.429,0.1067162
1.43,0.109005
1.431,0.111866
1.432,0.1150131
1.433,0.1170159
1.434,0.1193047
1.435,0.1213074
1.436,0.1233101
1.437,0.1255989
1.438,0.1273155
1.439,0.128746
1.44,0.1298905
1.441,0.131321
1.442,0.1327515
1.443,0.1347542
1.444,0.1373291
1.445,0.1381874
1.446,0.1396179
1.447,0.1416207
1.448,0.1419068
1.449,0.1419068
1.45,0.1427651
1.451,0.1433373
1.452,0.1439095
1.453,0.1441956
1.454,0.1439095
1.455,0.1441956
1.456,0.1450539
1.457,0.1467705
1.458,0.1479149
1.459,0.1476288
1.46,0.1476288
1.461,0.1467705
1.462,0.1461983
1.463,0.1447678
1.464,0.1430512
1.465,0.142479
1.466,0.1407623
1.467,0.1390457
1.468,0.1381874
1.469,0.1364708
1.47,0.1353264
1.471,0.1350403
1.472,0.134182
1.473,0.1327515
1.474,0.1310349
1.475,0.128746
1.476,0.125885
1.477,0.1215935
1.478,0.1187325
1.479,0.1161575
1.48,0.1135826
1.481,0.1110077
1.482,0.1075745
1.483,0.1055718
1.484,0.1041413
1.485,0.1021385
1.486,0.1004219
1.487,0.0981331
1.488,0.0946999
1.489,0.0901222
1.49,0.0855446
1.491,0.0818253
1.492,0.078392
1.493,0.0749588
1.494,0.0712395
1.495,0.0675202
1.496,0.0646591
1.497,0.0617981
1.498,0.058651
1.499,0.0560761
1.5,0.0526428
1.501,0.0477791
1.502,0.0434876
1.503,0.0389099
1.504,0.0340462
1.505,0.0300408
1.506,0.0266075
1.507,0.0228882
1.508,0.0185967
1.509,0.0143051
1.51,0.0108719
1.511,0.0077248
1.512,0.002861
1.513,-0.0022888
1.514,-0.0077248
1.515,-0.0125885
1.516,-0.0180245
1.517,-0.0217438
1.518,-0.0237465
1.519,-0.0268936
1.52,-0.0300408
1.521,-0.0343323
1.522,-0.039196
1.523,-0.0432015
1.524,-0.0463486
1.525,-0.0509262
1.526,-0.0560761
1.527,-0.0603676
1.528,-0.0626564
1.529,-0.0638008
1.53,-0.0652313
1.531,-0.0666618
1.532,-0.0689507
1.533,-0.0718117
1.534,-0.0752449
1.535,-0.078392
1.536,-0.0798226
1.537,-0.0815392
1.538,-0.0826836
1.539,-0.0841141
1.54,-0.0864029
1.541,-0.0886917
1.542,-0.0898361
1.543,-0.0906944
1.544,-0.0935555
1.545,-0.0967026
1.546,-0.0989914
1.547,-0.1004219
1.548,-0.103569
1.549,-0.1055718
1.55,-0.106144
1.551,-0.106144
1.552,-0.1075745
1.553,-0.1092911
1.554,-0.1107216
1.555,-0.1112938
1.556,-0.1115799
1.557,-0.1107216
1.558,-0.1104355
1.559,-0.1101494
1.56,-0.1098633
1.561,-0.1075745
1.562,-0.106144
1.563,-0.1070023
1.564,-0.1075745
1.565,-0.1058579
1.566,-0.103569
1.567,-0.1021385
1.568,-0.1021385
1.569,-0.1012802
1.57,-0.1004219
1.571,-0.0995636
1.572,-0.0987053
1.573,-0.097847
1.574,-0.097847
1.575,-0.0992775
1.576,-0.100708
1.577,-0.1015663
1.578,-0.1029968
1.579,-0.1029968
1.58,-0.1009941
1.581,-0.0995636
1.582,-0.0992775
1.583,-0.0989914
1.584,-0.0981331
1.585,-0.0972748
1.586,-0.0975609
1.587,-0.0987053
1.588,-0.0998497
1.589,-0.1012802
1.59,-0.1027107
1.591,-0.1027107
1.592,-0.1012802
1.593,-0.1001358
1.594,-0.0998497
1.595,-0.0989914
1.596,-0.0984192
1.597,-0.0972748
1.598,-0.0967026
1.599,-0.0958443
1.6,-0.0938416
1.601,-0.0932694
1.602,-0.0924111
1.603,-0.0898361
1.604,-0.0864029
1.605,-0.083828
1.606,-0.0821114
1.607,-0.0812531
1.608,-0.080967
1.609,-0.080967
1.61,-0.0801087
1.611,-0.0781059
1.612,-0.0775337
1.613,-0.0781059
1.614,-0.0795365
1.615,-0.0803948
1.616,-0.080967
1.617,-0.0818253
1.618,-0.080967
1.619,-0.0778198
1.62,-0.0761032
1.621,-0.0752449
1.622,-0.0746727
1.623,-0.0738144
1.624,-0.0720978
1.625,-0.0718117
1.626,-0.0712395
1.627,-0.0712395
1.628,-0.0720978
1.629,-0.0715256
1.63,-0.0686646
1.631,-0.0660896
1.632,-0.0638008
1.633,-0.061512
1.634,-0.0589371
1.635,-0.0577927
1.636,-0.0580788
1.637,-0.0583649
1.638,-0.0572205
1.639,-0.0549317
1.64,-0.0535011
1.641,-0.0529289
1.642,-0.0520706
1.643,-0.0520706
1.644,-0.0514984
1.645,-0.0509262
1.646,-0.0520706
1.647,-0.0537872
1.648,-0.0537872
1.649,-0.0523567
1.65,-0.0509262
1.651,-0.0492096
1.652,-0.0480652
1.653,-0.0469208
1.654,-0.0466347
1.655,-0.047493
1.656,-0.0483513
1.657,-0.0486374
1.658,-0.047493
1.659,-0.0452042
1.66,-0.0429154
1.661,-0.0406265
1.662,-0.0383377
1.663,-0.0357628
1.664,-0.0349045
1.665,-0.0343323
1.666,-0.0343323
1.667,-0.0349045
1.668,-0.0351906
1.669,-0.0354767
1.67,-0.0360489
1.671,-0.0357628
1.672,-0.0349045
1.673,-0.0346184
1.674,-0.0343323
1.675,-0.0357628
1.676,-0.0380516
1.677,-0.0400543
1.678,-0.042057
1.679,-0.0440598
1.68,-0.0443459
1.681,-0.0434876
1.682,-0.0434876
1.683,-0.0437737
1.684,-0.0434876
1.685,-0.0429154
1.686,-0.0423431
1.687,-0.0426293
1.688,-0.0429154
1.689,-0.0440598
1.69,-0.0454903
1.691,-0.0460625
1.692,-0.0454903
1.693,-0.0454903
1.694,-0.0463486
1.695,-0.047493
1.696,-0.0477791
1.697,-0.0477791
1.698,-0.0483513
1.699,-0.0483513
1.7,-0.0483513
1.701,-0.0483513
1.702,-0.0486374
1.703,-0.0483513
1.704,-0.047493
1.705,-0.0469208
1.706,-0.0469208
1.707,-0.0466347
1.708,-0.047493
1.709,-0.0483513
1.71,-0.0489235
1.711,-0.0489235
1.712,-0.0483513
1.713,-0.0480652
1.714,-0.0489235
1.715,-0.0497818
1.716,-0.0500679
1.717,-0.0500679
1.718,-0.0497818
1.719,-0.0506401
1.72,-0.0517845
1.721,-0.0517845
1.722,-0.0506401
1.723,-0.0506401
1.724,-0.0509262
1.725,-0.0517845
1.726,-0.0535011
1.727,-0.0546456
1.728,-0.0555039
1.729,-0.05579
1.73,-0.0555039
1.731,-0.0543594
1.732,-0.0526428
1.733,-0.0514984
1.734,-0.0506401
1.735,-0.0492096
1.736,-0.0480652
1.737,-0.0469208
1.738,-0.047493
1.739,-0.0483513
1.74,-0.0480652
1.741,-0.0483513
1.742,-0.0486374
1.743,-0.0489235
1.744,-0.0492096
1.745,-0.0494957
1.746,-0.0506401
1.747,-0.0514984
1.748,-0.0529289
1.749,-0.0549317
1.75,-0.0572205
1.751,-0.058651
1.752,-0.0606537
1.753,-0.0617981
1.754,-0.0620842
1.755,-0.0623703
1.756,-0.0635147
1.757,-0.0640869
1.758,-0.0629425
1.759,-0.0620842
1.76,-0.061512
1.761,-0.0617981
1.762,-0.061512
1.763,-0.0603676
1.764,-0.0595093
1.765,-0.0575066
1.766,-0.0552178
1.767,-0.0523567
1.768,-0.0500679
1.769,-0.047493
1.77,-0.0457764
1.771,-0.044632
1.772,-0.0434876
1.773,-0.0434876
1.774,-0.0449181
1.775,-0.0466347
1.776,-0.0477791
1.777,-0.0486374
1.778,-0.0483513
1.779,-0.0480652
1.78,-0.0483513
1.781,-0.0492096
1.782,-0.0517845
1.783,-0.0540733
1.784,-0.0555039
1.785,-0.0560761
1.786,-0.05579
1.787,-0.0555039
1.788,-0.0563622
1.789,-0.0575066
1.79,-0.0577927
1.791,-0.0572205
1.792,-0.0577927
1.793,-0.0592232
1.794,-0.0606537
1.795,-0.0617981
1.796,-0.0617981
1.797,-0.0620842
1.798,-0.061512
1.799,-0.0606537
1.8,-0.0600815
1.801,-0.0595093
1.802,-0.058651
1.803,-0.058651
1.804,-0.0592232
1.805,-0.0589371
1.806,-0.0572205
1.807,-0.0563622
1.808,-0.0575066
1.809,-0.0580788
1.81,-0.0569344
1.811,-0.05579
1.812,-0.0549317
1.813,-0.0546456
1.814,-0.0543594
1.815,-0.0543594
1.816,-0.0540733
1.817,-0.0529289
1.818,-0.0520706
1.819,-0.0535011
1.82,-0.0552178
1.821,-0.05579
1.822,-0.0566483
1.823,-0.0589371
1.824,-0.0595093
1.825,-0.0583649
1.826,-0.0580788
1.827,-0.0583649
1.828,-0.0583649
1.829,-0.0577927
1.83,-0.0575066
1.831,-0.0575066
1.832,-0.0575066
1.833,-0.0572205
1.834,-0.0566483
1.835,-0.05579
1.836,-0.0537872
1.837,-0.0523567
1.838,-0.0520706
1.839,-0.0523567
1.84,-0.0523567
1.841,-0.0529289
1.842,-0.0537872
1.843,-0.0537872
1.844,-0.053215
1.845,-0.053215
1.846,-0.0537872
1.847,-0.0540733
1.848,-0.0535011
1.849,-0.0529289
1.85,-0.0523567
1.851,-0.0512123
1.852,-0.050354
1.853,-0.050354
1.854,-0.0509262
1.855,-0.050354
1.856,-0.0489235
1.857,-0.0483513
1.858,-0.0477791
1.859,-0.0483513
1.86,-0.0494957
1.861,-0.0509262
1.862,-0.0512123
1.863,-0.0512123
1.864,-0.0523567
1.865,-0.0526428
1.866,-0.0517845
1.867,-0.0512123
1.868,-0.0526428
1.869,-0.0535011
1.87,-0.0546456
1.871,-0.0546456
1.872,-0.0552178
1.873,-0.0563622
1.874,-0.0572205
1.875,-0.058651
1.876,-0.0595093
1.877,-0.0589371
1.878,-0.0575066
1.879,-0.0569344
1.88,-0.0572205
1.881,-0.0566483
1.882,-0.0563622
1.883,-0.0563622
1.884,-0.0566483
1.885,-0.0560761
1.886,-0.0560761
1.887,-0.0549317
1.888,-0.0537872
1.889,-0.0529289
1.89,-0.0523567
1.891,-0.0520706
1.892,-0.0509262
1.893,-0.0486374
1.894,-0.0483513
1.895,-0.0494957
1.896,-0.050354
1.897,-0.0497818
1.898,-0.0480652
1.899,-0.0457764
1.9,-0.0443459
1.901,-0.0426293
1.902,-0.0417709
1.903,-0.0411987
1.904,-0.0411987
1.905,-0.0417709
1.906,-0.0429154
1.907,-0.0437737
1.908,-0.0432015
1.909,-0.0437737
1.91,-0.044632
1.911,-0.0443459
1.912,-0.0432015
1.913,-0.042057
1.914,-0.0406265
1.915,-0.0400543
1.916,-0.0403404
1.917,-0.0403404
1.918,-0.0400543
1.919,-0.0386238
1.92,-0.0366211
1.921,-0.0349045
1.922,-0.0331879
1.923,-0.030613
1.924,-0.0271797
1.925,-0.0257492
1.926,-0.0243187
1.927,-0.0237465
1.928,-0.0228882
1.929,-0.0226021
1.93,-0.0211716
1.931,-0.0200272
1.932,-0.0191689
1.933,-0.0185967
1.934,-0.0180245
1.935,-0.0160217
1.936,-0.0143051
1.937,-0.0102997
1.938,-0.0065804
1.939,-0.0042915
1.94,-0.0034332
1.941,-0.0045776
1.942,-0.0060081
1.943,-0.0080109
1.944,-0.0097275
1.945,-0.0100136
1.946,-0.0094414
1.947,-0.0102997
1.948,-0.0125885
1.949,-0.0151634
1.95,-0.0171661
1.951,-0.0180245
1.952,-0.0208855
1.953,-0.0243187
1.954,-0.0297546
1.955,-0.0349045
1.956,-0.0371933
1.957,-0.0386238
1.958,-0.0397682
1.959,-0.0400543
1.96,-0.0394821
1.961,-0.0400543
1.962,-0.0411987
1.963,-0.0409126
1.964,-0.0377655
1.965,-0.0340462
1.966,-0.0308991
1.967,-0.0266075
1.968,-0.0228882
1.969,-0.0183106
1.97,-0.0131607
1.971,-0.008297
1.972,-0.0048637
1.973,-0.0040054
1.974,-0.002861
1.975,-0.0014305
1.976,0
1.977,0.0008583
1.978,0.0022888
1.979,0.002861
1.98,0.0025749
1.981,0
1.982,-0.0014305
1.983,-0.0008583
1.984,-0.0017166
1.985,-0.0022888
1.986,-0.0045776
1.987,-0.0080109
1.988,-0.0102997
1.989,-0.0131607
1.99,-0.0160217
1.991,-0.0200272
1.992,-0.0240326
1.993,-0.0288963
1.994,-0.0331879
1.995,-0.0369072
1.996,-0.039196
1.997,-0.0417709
1.998,-0.0437737
1.999,-0.0452042
2,-0.0477791
2.001,-0.0492096
2.002,-0.0512123
2.003,-0.0514984
2.004,-0.0520706
2.005,-0.0537872
2.006,-0.0555039
2.007,-0.0566483
2.008,-0.0569344
2.009,-0.0566483
2.01,-0.0560761
2.011,-0.0540733
2.012,-0.0514984
2.013,-0.0492096
2.014,-0.0472069
2.015,-0.0457764
2.016,-0.0454903
2.017,-0.0443459
2.018,-0.0449181
2.019,-0.0452042
2.02,-0.0449181
2.021,-0.0434876
2.022,-0.0423431
2.023,-0.0417709
2.024,-0.0414848
2.025,-0.0417709
2.026,-0.0423431
2.027,-0.042057
2.028,-0.0429154
2.029,-0.0443459
2.03,-0.0460625
2.031,-0.047493
2.032,-0.0477791
2.033,-0.0469208
2.034,-0.0469208
2.035,-0.0460625
2.036,-0.0454903
2.037,-0.0466347
2.038,-0.0489235
2.039,-0.0497818
2.04,-0.0492096
2.041,-0.047493
2.042,-0.0466347
2.043,-0.0463486
2.044,-0.0463486
2.045,-0.0463486
2.046,-0.0457764
2.047,-0.0437737
2.048,-0.042057
2.049,-0.0409126
2.05,-0.039196
2.051,-0.0377655
2.052,-0.036335
2.053,-0.033474
2.054,-0.028038
2.055,-0.0208855
2.056,-0.0128746
2.057,-0.0020027
2.058,0.0100136
2.059,0.0248909
2.06,0.0426293
2.061,0.0620842
2.062,0.0821114
2.063,0.1015663
2.064,0.1213074
2.065,0.142479
2.066,0.165081
2.067,0.1882553
2.068,0.2114296
2.069,0.2337456
2.07,0.2532006
2.071,0.2703667
2.072,0.2846718
2.073,0.2969742
2.074,0.3072739
2.075,0.3149987
2.076,0.3204346
2.077,0.3230095
2.078,0.324154
2.079,0.3250123
2.08,0.3281594
2.081,0.3310204
2.082,0.3315926
2.083,0.3313065
2.084,0.3287316
2.085,0.32444
2.086,0.3184319
2.087,0.3107072
2.088,0.3001213
2.089,0.2875329
2.09,0.2735139
2.091,0.2580643
2.092,0.243187
2.093,0.2285958
2.094,0.2145768
2.095,0.2005577
2.096,0.1853943
2.097,0.167656
2.098,0.1502037
2.099,0.134182
2.1,0.1193047
2.101,0.1067162
2.102,0.0964165
2.103,0.0881195
2.104,0.0821114
2.105,0.0801087
2.106,0.0812531
2.107,0.0835419
2.108,0.0849724
2.109,0.0858307
2.11,0.086689
2.111,0.0886917
2.112,0.0906944
2.113,0.0941277
2.114,0.0967026
2.115,0.0972748
2.116,0.0975609
2.117,0.0972748
2.118,0.0958443
2.119,0.0941277
2.12,0.092125
2.121,0.0898361
2.122,0.086689
2.123,0.0815392
2.124,0.0769615
2.125,0.0723839
2.126,0.0678063
2.127,0.0638008
2.128,0.0595093
2.129,0.0552178
2.13,0.050354
2.131,0.0469208
2.132,0.0440598
2.133,0.0406265
2.134,0.0369072
2.135,0.0331879
2.136,0.0300408
2.137,0.0268936
2.138,0.0248909
2.139,0.0231743
2.14,0.0220299
2.141,0.019455
2.142,0.0183106
2.143,0.0177383
2.144,0.0163078
2.145,0.0151634
2.146,0.014019
2.147,0.0137329
2.148,0.0128746
2.149,0.0123024
2.15,0.0128746
2.151,0.0137329
2.152,0.0128746
2.153,0.0114441
2.154,0.0102997
2.155,0.0088692
2.156,0.0074387
2.157,0.0074387
2.158,0.0071526
2.159,0.0062943
2.16,0.0054359
2.161,0.0048637
2.162,0.0045776
2.163,0.005722
2.164,0.0065804
2.165,0.0060081
2.166,0.0068665
2.167,0.008297
2.168,0.0091553
2.169,0.0097275
2.17,0.0108719
2.171,0.0120163
2.172,0.0134468
2.173,0.014019
2.174,0.0137329
2.175,0.0134468
2.176,0.0137329
2.177,0.0145912
2.178,0.014019
2.179,0.0131607
2.18,0.0123024
2.181,0.0120163
2.182,0.014019
2.183,0.0157356
2.184,0.0165939
2.185,0.0174522
2.186,0.0185967
2.187,0.0191689
2.188,0.019455
2.189,0.0180245
2.19,0.0174522
2.191,0.0177383
2.192,0.0188828
2.193,0.0191689
2.194,0.0200272
2.195,0.022316
2.196,0.0243187
2.197,0.025177
2.198,0.0257492
2.199,0.0266075
2.2,0.0268936
2.201,0.0271797
2.202,0.0286102
2.203,0.030613
2.204,0.0317574
2.205,0.0337601
2.206,0.036335
2.207,0.0371933
2.208,0.0360489
2.209,0.0349045
2.21,0.0346184
2.211,0.0343323
2.212,0.0340462
2.213,0.0354767
2.214,0.036335
2.215,0.0374794
2.216,0.0374794
2.217,0.0380516
2.218,0.0383377
2.219,0.0377655
2.22,0.0386238
2.221,0.0403404
2.222,0.0411987
2.223,0.0417709
2.224,0.042057
2.225,0.0429154
2.226,0.0454903
2.227,0.0480652
2.228,0.0506401
2.229,0.0526428
2.23,0.0540733
2.231,0.0566483
2.232,0.058651
2.233,0.0620842
2.234,0.0646591
2.235,0.0666618
2.236,0.0680924
2.237,0.0680924
2.238,0.0675202
2.239,0.0675202
2.24,0.0678063
2.241,0.0686646
2.242,0.0712395
2.243,0.0729561
2.244,0.0743866
2.245,0.0758171
2.246,0.0775337
2.247,0.0792504
2.248,0.0812531
2.249,0.0841141
2.25,0.0861168
2.251,0.0881195
2.252,0.0898361
2.253,0.092125
2.254,0.094986
2.255,0.0975609
2.256,0.1004219
2.257,0.103569
2.258,0.1072884
2.259,0.1095772
2.26,0.1098633
2.261,0.1107216
2.262,0.111866
2.263,0.1124382
2.264,0.1130104
2.265,0.1144409
2.266,0.1161575
2.267,0.1170159
2.268,0.1184464
2.269,0.1207352
2.27,0.1218796
2.271,0.1227379
2.272,0.1247406
2.273,0.1255989
2.274,0.1261711
2.275,0.125885
2.276,0.1261711
2.277,0.1278878
2.278,0.1290321
2.279,0.1304627
2.28,0.1327515
2.281,0.1333237
2.282,0.1327515
2.283,0.1333237
2.284,0.1350403
2.285,0.137043
2.286,0.1381874
2.287,0.1401902
2.288,0.1416207
2.289,0.1419068
2.29,0.1416207
2.291,0.1419068
2.292,0.1421929
2.293,0.1419068
2.294,0.1404762
2.295,0.1390457
2.296,0.1379013
2.297,0.1358986
2.298,0.1350403
2.299,0.1353264
2.3,0.1347542
2.301,0.1336098
2.302,0.1316071
2.303,0.1298905
2.304,0.1281739
2.305,0.1261711
2.306,0.1244545
2.307,0.1221657
2.308,0.1181603
2.309,0.1158715
2.31,0.1138687
2.311,0.1121521
2.312,0.1107216
2.313,0.1092911
2.314,0.1081467
2.315,0.1058579
2.316,0.1024246
2.317,0.0984192
2.318,0.094986
2.319,0.0915528
2.32,0.0881195
2.321,0.0849724
2.322,0.0812531
2.323,0.0775337
2.324,0.0743866
2.325,0.0712395
2.326,0.0675202
2.327,0.0632286
2.328,0.0595093
2.329,0.0572205
2.33,0.0546456
2.331,0.0514984
2.332,0.0477791
2.333,0.0449181
2.334,0.0417709
2.335,0.0377655
2.336,0.0351906
2.337,0.0326157
2.338,0.0294685
2.339,0.0257492
2.34,0.0220299
2.341,0.0177383
2.342,0.0143051
2.343,0.0105858
2.344,0.0068665
2.345,0.0034332
2.346,-0.0017166
2.347,-0.0071526
2.348,-0.0114441
2.349,-0.0145912
2.35,-0.0183106
2.351,-0.022316
2.352,-0.0254631
2.353,-0.0291824
2.354,-0.0326157
2.355,-0.0354767
2.356,-0.0377655
2.357,-0.0409126
2.358,-0.0437737
2.359,-0.0466347
2.36,-0.050354
2.361,-0.0540733
2.362,-0.0575066
2.363,-0.0600815
2.364,-0.0617981
2.365,-0.0632286
2.366,-0.0646591
2.367,-0.066948
2.368,-0.0695229
2.369,-0.0715256
2.37,-0.0735283
2.371,-0.075531
2.372,-0.0781059
2.373,-0.0803948
2.374,-0.080967
2.375,-0.0818253
2.376,-0.0821114
2.377,-0.080967
2.378,-0.0801087
2.379,-0.0795365
2.38,-0.0789642
2.381,-0.0801087
2.382,-0.0815392
2.383,-0.0826836
2.384,-0.0823975
2.385,-0.0815392
2.386,-0.0821114
2.387,-0.0832558
2.388,-0.0849724
2.389,-0.0872612
2.39,-0.0884056
2.391,-0.0886917
2.392,-0.0892639
2.393,-0.0904083
2.394,-0.0929833
2.395,-0.094986
2.396,-0.0961304
2.397,-0.0975609
2.398,-0.0995636
2.399,-0.1012802
2.4,-0.1018524
2.401,-0.1021385
2.402,-0.1027107
2.403,-0.103569
2.404,-0.1041413
2.405,-0.1044274
2.406,-0.1041413
2.407,-0.1032829
2.408,-0.1041413
2.409,-0.1047135
2.41,-0.1058579
2.411,-0.1055718
2.412,-0.1052857
2.413,-0.1058579
2.414,-0.1064301
2.415,-0.1058579
2.416,-0.1052857
2.417,-0.1052857
2.418,-0.1044274
2.419,-0.1038551
2.42,-0.1027107
2.421,-0.100708
2.422,-0.0987053
2.423,-0.097847
2.424,-0.0975609
2.425,-0.0972748
2.426,-0.0984192
2.427,-0.0992775
2.428,-0.1001358
2.429,-0.100708
2.43,-0.0992775
2.431,-0.097847
2.432,-0.0967026
2.433,-0.0952721
2.434,-0.0941277
2.435,-0.0932694
2.436,-0.0918389
2.437,-0.0901222
2.438,-0.0889778
2.439,-0.0886917
2.44,-0.0875473
2.441,-0.0864029
2.442,-0.0846863
2.443,-0.0823975
2.444,-0.0798226
2.445,-0.0769615
2.446,-0.075531
2.447,-0.0746727
2.448,-0.0732422
2.449,-0.0720978
2.45,-0.0718117
2.451,-0.0709534
2.452,-0.0689507
2.453,-0.0680924
2.454,-0.0686646
2.455,-0.0678063
2.456,-0.0652313
2.457,-0.0638008
2.458,-0.0620842
2.459,-0.0612259
2.46,-0.0606537
2.461,-0.0603676
2.462,-0.0612259
2.463,-0.0612259
2.464,-0.0620842
2.465,-0.0626564
2.466,-0.0626564
2.467,-0.0620842
2.468,-0.0612259
2.469,-0.0606537
2.47,-0.0600815
2.471,-0.0595093
2.472,-0.0612259
2.473,-0.0623703
2.474,-0.0626564
2.475,-0.0640869
2.476,-0.0655174
2.477,-0.0672341
2.478,-0.0678063
2.479,-0.0660896
2.48,-0.0638008
2.481,-0.0623703
2.482,-0.0612259
2.483,-0.0606537
2.484,-0.0600815
2.485,-0.0595093
2.486,-0.058651
2.487,-0.0569344
2.488,-0.0552178
2.489,-0.0535011
2.49,-0.0529289
2.491,-0.0529289
2.492,-0.0523567
2.493,-0.0509262
2.494,-0.0497818
2.495,-0.0494957
2.496,-0.0509262
2.497,-0.0540733
2.498,-0.0560761
2.499,-0.0569344
2.5,-0.0563622
2.501,-0.0543594
2.502,-0.0529289
2.503,-0.0523567
2.504,-0.0526428
2.505,-0.0526428
2.506,-0.0514984
2.507,-0.0494957
2.508,-0.0483513
2.509,-0.0483513
2.51,-0.0486374
2.511,-0.0492096
2.512,-0.0492096
2.513,-0.0480652
2.514,-0.0452042
2.515,-0.0423431
2.516,-0.0400543
2.517,-0.0380516
2.518,-0.0360489
2.519,-0.0357628
2.52,-0.0360489
2.521,-0.0357628
2.522,-0.0357628
2.523,-0.0360489
2.524,-0.0377655
2.525,-0.0409126
2.526,-0.0429154
2.527,-0.0452042
2.528,-0.0466347
2.529,-0.0466347
2.53,-0.0463486
2.531,-0.0463486
2.532,-0.0466347
2.533,-0.0466347
2.534,-0.0483513
2.535,-0.0514984
2.536,-0.0520706
2.537,-0.0514984
2.538,-0.0509262
2.539,-0.0514984
2.54,-0.0529289
2.541,-0.0529289
2.542,-0.0529289
2.543,-0.0537872
2.544,-0.0529289
2.545,-0.0523567
2.546,-0.0526428
2.547,-0.0535011
2.548,-0.0546456
2.549,-0.0563622
2.55,-0.0577927
2.551,-0.0580788
2.552,-0.0572205
2.553,-0.0569344
2.554,-0.0575066
2.555,-0.0592232
2.556,-0.0603676
2.557,-0.0600815
2.558,-0.0606537
2.559,-0.0609398
2.56,-0.0606537
2.561,-0.061512
2.562,-0.0617981
2.563,-0.0617981
2.564,-0.0629425
2.565,-0.0640869
2.566,-0.0635147
2.567,-0.0626564
2.568,-0.0612259
2.569,-0.0600815
2.57,-0.0600815
2.571,-0.0595093
2.572,-0.0575066
2.573,-0.0555039
2.574,-0.0546456
2.575,-0.0540733
2.576,-0.0537872
2.577,-0.0529289
2.578,-0.0526428
2.579,-0.0517845
2.58,-0.050354
2.581,-0.0483513
2.582,-0.0463486
2.583,-0.0449181
2.584,-0.0440598
2.585,-0.0443459
2.586,-0.0434876
2.587,-0.042057
2.588,-0.042057
2.589,-0.0429154
2.59,-0.044632
2.591,-0.0452042
2.592,-0.0449181
2.593,-0.0454903
2.594,-0.0449181
2.595,-0.0454903
2.596,-0.0466347
2.597,-0.0477791
2.598,-0.0497818
2.599,-0.0506401
2.6,-0.050354
2.601,-0.0494957
2.602,-0.0483513
2.603,-0.0489235
2.604,-0.0494957
2.605,-0.0497818
2.606,-0.0497818
2.607,-0.0486374
2.608,-0.0489235
2.609,-0.0489235
2.61,-0.0480652
2.611,-0.0486374
2.612,-0.0480652
2.613,-0.0469208
2.614,-0.0469208
2.615,-0.0454903
2.616,-0.0440598
2.617,-0.0437737
2.618,-0.0429154
2.619,-0.0417709
2.62,-0.0406265
2.621,-0.0411987
2.622,-0.0417709
2.623,-0.0414848
2.624,-0.0409126
2.625,-0.0414848
2.626,-0.0440598
2.627,-0.0463486
2.628,-0.0480652
2.629,-0.0494957
2.63,-0.0514984
2.631,-0.0526428
2.632,-0.0537872
2.633,-0.0546456
2.634,-0.0555039
2.635,-0.05579
2.636,-0.0560761
2.637,-0.0552178
2.638,-0.0543594
2.639,-0.0535011
2.64,-0.0540733
2.641,-0.05579
2.642,-0.0555039
2.643,-0.0535011
2.644,-0.0520706
2.645,-0.050354
2.646,-0.0483513
2.647,-0.0469208
2.648,-0.0454903
2.649,-0.0432015
2.65,-0.0417709
2.651,-0.0406265
2.652,-0.0397682
2.653,-0.0394821
2.654,-0.039196
2.655,-0.0383377
2.656,-0.0377655
2.657,-0.0371933
2.658,-0.0374794
2.659,-0.039196
2.66,-0.0414848
2.661,-0.0432015
2.662,-0.0443459
2.663,-0.0460625
2.664,-0.047493
2.665,-0.0480652
2.666,-0.0489235
2.667,-0.0486374
2.668,-0.0477791
2.669,-0.0472069
2.67,-0.047493
2.671,-0.0477791
2.672,-0.0477791
2.673,-0.0480652
2.674,-0.0483513
2.675,-0.0486374
2.676,-0.0480652
2.677,-0.0472069
2.678,-0.0472069
2.679,-0.0472069
2.68,-0.0469208
2.681,-0.0454903
2.682,-0.0437737
2.683,-0.0434876
2.684,-0.0432015
2.685,-0.0434876
2.686,-0.0429154
2.687,-0.0417709
2.688,-0.0417709
2.689,-0.042057
2.69,-0.0426293
2.691,-0.0437737
2.692,-0.044632
2.693,-0.0452042
2.694,-0.0460625
2.695,-0.0466347
2.696,-0.0469208
2.697,-0.0463486
2.698,-0.0472069
2.699,-0.0492096
2.7,-0.0500679
2.701,-0.0512123
2.702,-0.0523567
2.703,-0.0512123
2.704,-0.0500679
2.705,-0.0492096
2.706,-0.0489235
2.707,-0.0477791
2.708,-0.0466347
2.709,-0.0457764
2.71,-0.0443459
2.711,-0.0423431
2.712,-0.0397682
2.713,-0.0366211
2.714,-0.0351906
2.715,-0.0337601
2.716,-0.0320435
2.717,-0.0311852
2.718,-0.0297546
2.719,-0.0274658
2.72,-0.0268936
2.721,-0.028038
2.722,-0.0286102
2.723,-0.0288963
2.724,-0.0297546
2.725,-0.030613
2.726,-0.0314713
2.727,-0.0323296
2.728,-0.033474
2.729,-0.0343323
2.73,-0.0349045
2.731,-0.0351906
2.732,-0.0349045
2.733,-0.0331879
2.734,-0.0303269
2.735,-0.0288963
2.736,-0.0274658
2.737,-0.025177
2.738,-0.0228882
2.739,-0.0205994
2.74,-0.0185967
2.741,-0.0165939
2.742,-0.0148773
2.743,-0.0128746
2.744,-0.0117302
2.745,-0.011158
2.746,-0.0102997
2.747,-0.0100136
2.748,-0.0097275
2.749,-0.0080109
2.75,-0.0062943
2.751,-0.0042915
2.752,-0.0014305
2.753,-0.0002861
2.754,-0.0008583
2.755,-0.0025749
2.756,-0.0040054
2.757,-0.0051498
2.758,-0.0065804
2.759,-0.0068665
2.76,-0.0068665
2.761,-0.0062943
2.762,-0.0054359
2.763,-0.0054359
2.764,-0.005722
2.765,-0.0060081
2.766,-0.0065804
2.767,-0.0074387
2.768,-0.0088692
2.769,-0.0123024
2.77,-0.0148773
2.771,-0.0165939
2.772,-0.01688
2.773,-0.0174522
2.774,-0.019455
2.775,-0.0217438
2.776,-0.0243187
2.777,-0.0260353
2.778,-0.0268936
2.779,-0.0266075
2.78,-0.0254631
2.781,-0.025177
2.782,-0.0246048
2.783,-0.0228882
2.784,-0.0214577
2.785,-0.0191689
2.786,-0.0151634
2.787,-0.0114441
2.788,-0.0085831
2.789,-0.0060081
2.79,-0.002861
2.791,0.0005722
2.792,0.0045776
2.793,0.0088692
2.794,0.0125885
2.795,0.0143051
2.796,0.0160217
2.797,0.0165939
2.798,0.0183106
2.799,0.0203133
2.8,0.0214577
2.801,0.0226021
2.802,0.0228882
2.803,0.0226021
2.804,0.0220299
2.805,0.0211716
2.806,0.0191689
2.807,0.0163078
2.808,0.0134468
2.809,0.0105858
2.81,0.0071526
2.811,0.002861
2.812,-0.0002861
2.813,-0.0045776
2.814,-0.0080109
2.815,-0.0105858
2.816,-0.0137329
2.817,-0.01688
2.818,-0.0205994
2.819,-0.0234604
2.82,-0.0248909
2.821,-0.0266075
2.822,-0.0286102
2.823,-0.0303269
2.824,-0.0323296
2.825,-0.033474
2.826,-0.0349045
2.827,-0.0366211
2.828,-0.0371933
2.829,-0.0377655
2.83,-0.0386238
2.831,-0.0394821
2.832,-0.0406265
2.833,-0.042057
2.834,-0.0429154
2.835,-0.0434876
2.836,-0.0440598
2.837,-0.0454903
2.838,-0.0469208
2.839,-0.0472069
2.84,-0.0466347
2.841,-0.0472069
2.842,-0.0480652
2.843,-0.0480652
2.844,-0.0472069
2.845,-0.0477791
2.846,-0.0469208
2.847,-0.0454903
2.848,-0.044632
2.849,-0.0434876
2.85,-0.0411987
2.851,-0.039196
2.852,-0.036335
2.853,-0.033474
2.854,-0.0311852
2.855,-0.0291824
2.856,-0.028038
2.857,-0.0277519
2.858,-0.0266075
2.859,-0.0260353
2.86,-0.0266075
2.861,-0.0274658
2.862,-0.0274658
2.863,-0.0263214
2.864,-0.0257492
2.865,-0.025177
2.866,-0.0246048
2.867,-0.0231743
2.868,-0.0208855
2.869,-0.019455
2.87,-0.0191689
2.871,-0.0191689
2.872,-0.0180245
2.873,-0.0151634
2.874,-0.0114441
2.875,-0.0068665
2.876,-0.0008583
2.877,0.0071526
2.878,0.0183106
2.879,0.0311852
2.88,0.0457764
2.881,0.0609398
2.882,0.0772476
2.883,0.0946999
2.884,0.1121521
2.885,0.1281739
2.886,0.1450539
2.887,0.1627922
2.888,0.1805306
2.889,0.198555
2.89,0.2160073
2.891,0.2314568
2.892,0.2451897
2.893,0.257206
2.894,0.2689362
2.895,0.2772332
2.896,0.2829552
2.897,0.2866745
2.898,0.2898217
2.899,0.2926827
2.9,0.2955437
2.901,0.2984048
2.902,0.3024102
2.903,0.3067017
2.904,0.3089905
2.905,0.3098488
2.906,0.3081322
2.907,0.3052712
2.908,0.3021241
2.909,0.2969742
2.91,0.2883912
2.911,0.2763749
2.912,0.262928
2.913,0.2497673
2.914,0.2371788
2.915,0.2254486
2.916,0.2140045
2.917,0.2008438
2.918,0.1865387
2.919,0.1719475
2.92,0.1579285
2.921,0.14534
2.922,0.1336098
2.923,0.1244545
2.924,0.1161575
2.925,0.1078606
2.926,0.1029968
2.927,0.1012802
2.928,0.1018524
2.929,0.1044274
2.93,0.106144
2.931,0.1058579
2.932,0.1041413
2.933,0.1009941
2.934,0.0989914
2.935,0.0969887
2.936,0.0952721
2.937,0.0926972
2.938,0.0892639
2.939,0.0858307
2.94,0.0818253
2.941,0.0761032
2.942,0.069809
2.943,0.0640869
2.944,0.0589371
2.945,0.0537872
2.946,0.0483513
2.947,0.0432015
2.948,0.039196
2.949,0.0366211
2.95,0.0346184
2.951,0.0340462
2.952,0.033474
2.953,0.0323296
2.954,0.0308991
2.955,0.0291824
2.956,0.0266075
2.957,0.0228882
2.958,0.0211716
2.959,0.019455
2.96,0.0174522
2.961,0.0160217
2.962,0.014019
2.963,0.0120163
2.964,0.0105858
2.965,0.0091553
2.966,0.0080109
2.967,0.0077248
2.968,0.0062943
2.969,0.0054359
2.97,0.0040054
2.971,0.0017166
2.972,-0.0002861
2.973,-0.0011444
2.974,-0.0017166
2.975,-0.0020027
2.976,-0.0020027
2.977,-0.0020027
2.978,-0.002861
2.979,-0.0034332
2.98,-0.0037193
2.981,-0.0034332
2.982,-0.0031471
2.983,-0.0022888
2.984,-0.0020027
2.985,-0.0011444
2.986,-0.0014305
2.987,-0.0014305
2.988,-0.0005722
2.989,-0.0005722
2.99,-0.0008583
2.991,-0.0014305
2.992,-0.0022888
2.993,-0.002861
2.994,-0.0040054
2.995,-0.0054359
2.996,-0.0060081
2.997,-0.0065804
2.998,-0.0068665
2.999,-0.0077248
3,-0.0091553
3.001,-0.0088692
3.002,-0.0077248
3.003,-0.0074387
3.004,-0.0077248
3.005,-0.0068665
3.006,-0.0054359
3.007,-0.0025749
3.008,-0.0014305
3.009,-0.0008583
3.01,-0.0008583
3.011,0
3.012,0.0002861
3.013,0
3.014,-0.0008583
3.015,-0.0014305
3.016,-0.0005722
3.017,0.0014305
3.018,0.002861
3.019,0.002861
3.02,0.0034332
3.021,0.0048637
3.022,0.0048637
3.023,0.0048637
3.024,0.0042915
3.025,0.0040054
3.026,0.0037193
3.027,0.0040054
3.028,0.005722
3.029,0.0080109
3.03,0.0108719
3.031,0.0128746
3.032,0.0143051
3.033,0.0160217
3.034,0.01688
3.035,0.0177383
3.036,0.0191689
3.037,0.0200272
3.038,0.0208855
3.039,0.0226021
3.04,0.025177
3.041,0.0271797
3.042,0.0291824
3.043,0.0308991
3.044,0.0320435
3.045,0.0314713
3.046,0.0308991
3.047,0.0314713
3.048,0.0331879
3.049,0.0343323
3.05,0.0349045
3.051,0.0369072
3.052,0.0389099
3.053,0.0414848
3.054,0.0449181
3.055,0.0477791
3.056,0.0489235
3.057,0.0486374
3.058,0.0477791
3.059,0.0469208
3.06,0.047493
3.061,0.0489235
3.062,0.0514984
3.063,0.0535011
3.064,0.0543594
3.065,0.0552178
3.066,0.0589371
3.067,0.0632286
3.068,0.0655174
3.069,0.0660896
3.07,0.0655174
3.071,0.0658035
3.072,0.0666618
3.073,0.0672341
3.074,0.0683785
3.075,0.0706673
3.076,0.0729561
3.077,0.0746727
3.078,0.0758171
3.079,0.0778198
3.08,0.0806809
3.081,0.0835419
3.082,0.0858307
3.083,0.0858307
3.084,0.0858307
3.085,0.0872612
3.086,0.0912667
3.087,0.094986
3.088,0.0955582
3.089,0.0958443
3.09,0.0975609
3.091,0.0992775
3.092,0.0992775
3.093,0.1009941
3.094,0.1032829
3.095,0.1044274
3.096,0.1041413
3.097,0.1038551
3.098,0.1047135
3.099,0.1070023
3.1,0.1098633
3.101,0.1132965
3.102,0.1161575
3.103,0.1167298
3.104,0.1184464
3.105,0.1215935
3.106,0.123024
3.107,0.1238823
3.108,0.1247406
3.109,0.1261711
3.11,0.125885
3.111,0.1247406
3.112,0.1255989
3.113,0.1264572
3.114,0.1264572
3.115,0.1261711
3.116,0.125885
3.117,0.1247406
3.118,0.1233101
3.119,0.1218796
3.12,0.1210213
3.121,0.1195908
3.122,0.1187325
3.123,0.1190186
3.124,0.1181603
3.125,0.1167298
3.126,0.1155853
3.127,0.1135826
3.128,0.1110077
3.129,0.1095772
3.13,0.1081467
3.131,0.1064301
3.132,0.1052857
3.133,0.1049996
3.134,0.1041413
3.135,0.1024246
3.136,0.1012802
3.137,0.1001358
3.138,0.0969887
3.139,0.0938416
3.14,0.0904083
3.141,0.0872612
3.142,0.0835419
3.143,0.078392
3.144,0.0749588
3.145,0.0720978
3.146,0.0672341
3.147,0.061512
3.148,0.0575066
3.149,0.0535011
3.15,0.0500679
3.151,0.0480652
3.152,0.0457764
3.153,0.042057
3.154,0.0377655
3.155,0.0326157
3.156,0.0268936
3.157,0.022316
3.158,0.0185967
3.159,0.0148773
3.16,0.0123024
3.161,0.0097275
3.162,0.0062943
3.163,0.0031471
3.164,0.0002861
3.165,-0.0031471
3.166,-0.008297
3.167,-0.014019
3.168,-0.019455
3.169,-0.0237465
3.17,-0.0268936
3.171,-0.0297546
3.172,-0.030613
3.173,-0.030613
3.174,-0.0340462
3.175,-0.0377655
3.176,-0.0400543
3.177,-0.0437737
3.178,-0.047493
3.179,-0.0509262
3.18,-0.0540733
3.181,-0.0563622
3.182,-0.0577927
3.183,-0.0580788
3.184,-0.0575066
3.185,-0.0577927
3.186,-0.0592232
3.187,-0.061512
3.188,-0.064373
3.189,-0.0680924
3.19,-0.0723839
3.191,-0.0749588
3.192,-0.0772476
3.193,-0.080967
3.194,-0.083828
3.195,-0.0861168
3.196,-0.0878334
3.197,-0.0898361
3.198,-0.0901222
3.199,-0.08955
3.2,-0.08955
3.201,-0.0904083
3.202,-0.0909805
3.203,-0.0909805
3.204,-0.0901222
3.205,-0.08955
3.206,-0.0886917
3.207,-0.0881195
3.208,-0.0881195
3.209,-0.0881195
3.21,-0.0884056
3.211,-0.0892639
3.212,-0.08955
3.213,-0.08955
3.214,-0.0898361
3.215,-0.0904083
3.216,-0.0906944
3.217,-0.0909805
3.218,-0.0906944
3.219,-0.0904083
3.22,-0.0909805
3.221,-0.0918389
3.222,-0.0932694
3.223,-0.0941277
3.224,-0.0944138
3.225,-0.094986
3.226,-0.0961304
3.227,-0.0975609
3.228,-0.097847
3.229,-0.0981331
3.23,-0.0992775
3.231,-0.1009941
3.232,-0.1027107
3.233,-0.103569
3.234,-0.1038551
3.235,-0.1038551
3.236,-0.1041413
3.237,-0.1044274
3.238,-0.1049996
3.239,-0.1055718
3.24,-0.1070023
3.241,-0.109005
3.242,-0.1101494
3.243,-0.1104355
3.244,-0.1092911
3.245,-0.1084328
3.246,-0.1067162
3.247,-0.1041413
3.248,-0.1018524
3.249,-0.1009941
3.25,-0.1009941
3.251,-0.100708
3.252,-0.100708
3.253,-0.1012802
3.254,-0.1015663
3.255,-0.0998497
3.256,-0.0981331
3.257,-0.0972748
3.258,-0.0967026
3.259,-0.0964165
3.26,-0.0967026
3.261,-0.0967026
3.262,-0.0958443
3.263,-0.0955582
3.264,-0.0964165
3.265,-0.0955582
3.266,-0.0932694
3.267,-0.0909805
3.268,-0.0889778
3.269,-0.0872612
3.27,-0.0849724
3.271,-0.0806809
3.272,-0.0786782
3.273,-0.0781059
3.274,-0.0766754
3.275,-0.0746727
3.276,-0.0743866
3.277,-0.0732422
3.278,-0.0712395
3.279,-0.0706673
3.28,-0.0715256
3.281,-0.0712395
3.282,-0.0700951
3.283,-0.0686646
3.284,-0.0678063
3.285,-0.0675202
3.286,-0.0666618
3.287,-0.0663758
3.288,-0.0678063
3.289,-0.0686646
3.29,-0.0678063
3.291,-0.0678063
3.292,-0.0683785
3.293,-0.0680924
3.294,-0.0683785
3.295,-0.0689507
3.296,-0.0689507
3.297,-0.0680924
3.298,-0.0678063
3.299,-0.0683785
3.3,-0.0692368
3.301,-0.0678063
3.302,-0.0663758
3.303,-0.0649452
3.304,-0.0638008
3.305,-0.0638008
3.306,-0.0638008
3.307,-0.0632286
3.308,-0.0626564
3.309,-0.0617981
3.31,-0.0609398
3.311,-0.0597954
3.312,-0.0597954
3.313,-0.0600815
3.314,-0.0606537
3.315,-0.0603676
3.316,-0.0600815
3.317,-0.0595093
3.318,-0.0580788
3.319,-0.05579
3.32,-0.0546456
3.321,-0.0537872
3.322,-0.0523567
3.323,-0.0512123
3.324,-0.0514984
3.325,-0.0509262
3.326,-0.0497818
3.327,-0.0472069
3.328,-0.0457764
3.329,-0.044632
3.33,-0.0440598
3.331,-0.0440598
3.332,-0.0432015
3.333,-0.0409126
3.334,-0.0394821
3.335,-0.0394821
3.336,-0.0397682
3.337,-0.0400543
3.338,-0.039196
3.339,-0.0389099
3.34,-0.0394821
3.341,-0.0403404
3.342,-0.0426293
3.343,-0.0449181
3.344,-0.0480652
3.345,-0.0497818
3.346,-0.0506401
3.347,-0.0514984
3.348,-0.0512123
3.349,-0.0509262
3.35,-0.0517845
3.351,-0.0517845
3.352,-0.0523567
3.353,-0.0526428
3.354,-0.0523567
3.355,-0.0520706
3.356,-0.0517845
3.357,-0.0517845
3.358,-0.0509262
3.359,-0.050354
3.36,-0.050354
3.361,-0.0489235
3.362,-0.0472069
3.363,-0.0457764
3.364,-0.0440598
3.365,-0.042057
3.366,-0.0414848
3.367,-0.0394821
3.368,-0.0366211
3.369,-0.0349045
3.37,-0.0343323
3.371,-0.0326157
3.372,-0.0320435
3.373,-0.0323296
3.374,-0.0323296
3.375,-0.0331879
3.376,-0.0331879
3.377,-0.0329018
3.378,-0.0340462
3.379,-0.0354767
3.38,-0.0360489
3.381,-0.0366211
3.382,-0.0374794
3.383,-0.0369072
3.384,-0.0383377
3.385,-0.0400543
3.386,-0.0409126
3.387,-0.0411987
3.388,-0.0434876
3.389,-0.0460625
3.39,-0.0486374
3.391,-0.0509262
3.392,-0.0512123
3.393,-0.0523567
3.394,-0.0537872
3.395,-0.0552178
3.396,-0.0566483
3.397,-0.058651
3.398,-0.0606537
3.399,-0.0623703
3.4,-0.0629425
3.401,-0.0626564
3.402,-0.0629425
3.403,-0.0638008
3.404,-0.0652313
3.405,-0.0660896
3.406,-0.0660896
3.407,-0.0660896
3.408,-0.0663758
3.409,-0.0678063
3.41,-0.0695229
3.411,-0.0706673
3.412,-0.0715256
3.413,-0.0723839
3.414,-0.0741005
3.415,-0.0741005
3.416,-0.0720978
3.417,-0.0709534
3.418,-0.0709534
3.419,-0.0712395
3.42,-0.0712395
3.421,-0.0706673
3.422,-0.0695229
3.423,-0.0689507
3.424,-0.0680924
3.425,-0.0680924
3.426,-0.0683785
3.427,-0.0686646
3.428,-0.0686646
3.429,-0.0683785
3.43,-0.0672341
3.431,-0.0658035
3.432,-0.0646591
3.433,-0.0640869
3.434,-0.0635147
3.435,-0.0620842
3.436,-0.0612259
3.437,-0.0612259
3.438,-0.0620842
3.439,-0.0640869
3.44,-0.0663758
3.441,-0.0689507
3.442,-0.069809
3.443,-0.0692368
3.444,-0.0675202
3.445,-0.0663758
3.446,-0.0660896
3.447,-0.0663758
3.448,-0.0660896
3.449,-0.0663758
3.45,-0.066948
3.451,-0.066948
3.452,-0.0666618
3.453,-0.0660896
3.454,-0.0646591
3.455,-0.0629425
3.456,-0.061512
3.457,-0.0609398
3.458,-0.0603676
3.459,-0.0606537
3.46,-0.0612259
3.461,-0.0632286
3.462,-0.0649452
3.463,-0.0660896
3.464,-0.0672341
3.465,-0.0678063
3.466,-0.0663758
3.467,-0.0652313
3.468,-0.0649452
3.469,-0.0646591
3.47,-0.0640869
3.471,-0.0635147
3.472,-0.0626564
3.473,-0.0609398
3.474,-0.0589371
3.475,-0.0580788
3.476,-0.0569344
3.477,-0.0552178
3.478,-0.0529289
3.479,-0.0512123
3.48,-0.0497818
3.481,-0.0477791
3.482,-0.0460625
3.483,-0.044632
3.484,-0.0437737
3.485,-0.0432015
3.486,-0.0434876
3.487,-0.0440598
3.488,-0.0440598
3.489,-0.0452042
3.49,-0.0469208
3.491,-0.0492096
3.492,-0.050354
3.493,-0.0512123
3.494,-0.0523567
3.495,-0.053215
3.496,-0.0540733
3.497,-0.0552178
3.498,-0.0569344
3.499,-0.0577927
3.5,-0.0589371
3.501,-0.0589371
3.502,-0.0597954
3.503,-0.0603676
3.504,-0.0603676
3.505,-0.0617981
3.506,-0.0629425
3.507,-0.0635147
3.508,-0.0640869
3.509,-0.0649452
3.51,-0.066948
3.511,-0.0692368
3.512,-0.0709534
3.513,-0.0712395
3.514,-0.0712395
3.515,-0.0709534
3.516,-0.0712395
3.517,-0.0720978
3.518,-0.0723839
3.519,-0.0709534
3.52,-0.0683785
3.521,-0.0660896
3.522,-0.0638008
3.523,-0.0612259
3.524,-0.0592232
3.525,-0.0575066
3.526,-0.0549317
3.527,-0.0517845
3.528,-0.0477791
3.529,-0.0443459
3.53,-0.0423431
3.531,-0.0403404
3.532,-0.0371933
3.533,-0.0346184
3.534,-0.0317574
3.535,-0.0288963
3.536,-0.0243187
3.537,-0.0214577
3.538,-0.0205994
3.539,-0.0203133
3.54,-0.0208855
3.541,-0.0211716
3.542,-0.0205994
3.543,-0.0197411
3.544,-0.0183106
3.545,-0.0183106
3.546,-0.0177383
3.547,-0.0160217
3.548,-0.0148773
3.549,-0.0134468
3.55,-0.0117302
3.551,-0.0102997
3.552,-0.0100136
3.553,-0.011158
3.554,-0.0117302
3.555,-0.011158
3.556,-0.0117302
3.557,-0.0125885
3.558,-0.0143051
3.559,-0.0165939
3.56,-0.0203133
3.561,-0.0260353
3.562,-0.0314713
3.563,-0.0366211
3.564,-0.0409126
3.565,-0.0443459
3.566,-0.047493
3.567,-0.0500679
3.568,-0.0509262
3.569,-0.0512123
3.57,-0.0523567
3.571,-0.0535011
3.572,-0.0537872
3.573,-0.053215
3.574,-0.0517845
3.575,-0.0500679
3.576,-0.0472069
3.577,-0.0434876
3.578,-0.0389099
3.579,-0.0331879
3.58,-0.0286102
3.581,-0.025177
3.582,-0.0208855
3.583,-0.0165939
3.584,-0.0120163
3.585,-0.0085831
3.586,-0.0065804
3.587,-0.005722
3.588,-0.0048637
3.589,-0.0034332
3.59,-0.002861
3.591,-0.0034332
3.592,-0.0034332
3.593,-0.0045776
3.594,-0.0062943
3.595,-0.0080109
3.596,-0.0108719
3.597,-0.0137329
3.598,-0.0154495
3.599,-0.01688
3.6,-0.0197411
3.601,-0.0228882
3.602,-0.0260353
3.603,-0.0288963
3.604,-0.030613
3.605,-0.0329018
3.606,-0.0380516
3.607,-0.042057
3.608,-0.0449181
3.609,-0.0469208
3.61,-0.0483513
3.611,-0.0509262
3.612,-0.0523567
3.613,-0.053215
3.614,-0.0540733
3.615,-0.0549317
3.616,-0.0575066
3.617,-0.058651
3.618,-0.0592232
3.619,-0.0592232
3.62,-0.0589371
3.621,-0.0597954
3.622,-0.0597954
3.623,-0.0577927
3.624,-0.0560761
3.625,-0.05579
3.626,-0.0575066
3.627,-0.0595093
3.628,-0.0595093
3.629,-0.0589371
3.63,-0.0595093
3.631,-0.0600815
3.632,-0.0600815
3.633,-0.0580788
3.634,-0.05579
3.635,-0.0543594
3.636,-0.053215
3.637,-0.0529289
3.638,-0.0526428
3.639,-0.0535011
3.64,-0.0546456
3.641,-0.0549317
3.642,-0.0543594
3.643,-0.053215
3.644,-0.0514984
3.645,-0.050354
3.646,-0.0506401
3.647,-0.0506401
3.648,-0.0500679
3.649,-0.0500679
3.65,-0.050354
3.651,-0.0509262
3.652,-0.050354
3.653,-0.0500679
3.654,-0.0509262
3.655,-0.0514984
3.656,-0.0512123
3.657,-0.0514984
3.658,-0.0523567
3.659,-0.0526428
3.66,-0.0526428
3.661,-0.0529289
3.662,-0.0529289
3.663,-0.050354
3.664,-0.0443459
3.665,-0.0371933
3.666,-0.0291824
3.667,-0.0203133
3.668,-0.0100136
3.669,0.0017166
3.67,0.0148773
3.671,0.0308991
3.672,0.0494957
3.673,0.0686646
3.674,0.0881195
3.675,0.1075745
3.676,0.1261711
3.677,0.14534
3.678,0.1662255
3.679,0.1853943
3.68,0.2025605
3.681,0.2174378
3.682,0.2317429
3.683,0.2457619
3.684,0.2589226
3.685,0.2703667
3.686,0.2800942
3.687,0.2869607
3.688,0.2912522
3.689,0.2941132
3.69,0.2961159
3.691,0.2975464
3.692,0.2992631
3.693,0.3009796
3.694,0.301838
3.695,0.3006936
3.696,0.2995491
3.697,0.2958298
3.698,0.2903939
3.699,0.2829552
3.7,0.2717972
3.701,0.2589226
3.702,0.2454758
3.703,0.2305985
3.704,0.2165795
3.705,0.2025605
3.706,0.1865387
3.707,0.1693726
3.708,0.1513481
3.709,0.134182
3.71,0.117302
3.711,0.1018524
3.712,0.0878334
3.713,0.0758171
3.714,0.0660896
3.715,0.0592232
3.716,0.0552178
3.717,0.0543594
3.718,0.0555039
3.719,0.0569344
3.72,0.058651
3.721,0.0589371
3.722,0.0589371
3.723,0.0597954
3.724,0.0606537
3.725,0.0603676
3.726,0.0589371
3.727,0.0583649
3.728,0.0566483
3.729,0.0537872
3.73,0.0497818
3.731,0.0463486
3.732,0.0437737
3.733,0.0409126
3.734,0.0377655
3.735,0.0340462
3.736,0.0303269
3.737,0.028038
3.738,0.0268936
3.739,0.0263214
3.74,0.025177
3.741,0.0248909
3.742,0.0254631
3.743,0.0257492
3.744,0.0243187
3.745,0.0234604
3.746,0.0220299
3.747,0.0211716
3.748,0.0200272
3.749,0.0180245
3.75,0.0154495
3.751,0.0128746
3.752,0.0120163
3.753,0.0117302
3.754,0.0100136
3.755,0.0077248
3.756,0.0045776
3.757,0.0002861
3.758,-0.002861
3.759,-0.0060081
3.76,-0.008297
3.761,-0.0108719
3.762,-0.0131607
3.763,-0.0143051
3.764,-0.0151634
3.765,-0.0165939
3.766,-0.0163078
3.767,-0.0163078
3.768,-0.0160217
3.769,-0.0163078
3.77,-0.0174522
3.771,-0.0185967
3.772,-0.0200272
3.773,-0.019455
3.774,-0.0174522
3.775,-0.01688
3.776,-0.0171661
3.777,-0.0171661
3.778,-0.0165939
3.779,-0.01688
3.78,-0.0171661
3.781,-0.01688
3.782,-0.0157356
3.783,-0.0151634
3.784,-0.0134468
3.785,-0.0114441
3.786,-0.0108719
3.787,-0.0097275
3.788,-0.008297
3.789,-0.008297
3.79,-0.0097275
3.791,-0.0102997
3.792,-0.0108719
3.793,-0.0105858
3.794,-0.0097275
3.795,-0.0085831
3.796,-0.0068665
3.797,-0.0060081
3.798,-0.005722
3.799,-0.0051498
3.8,-0.0040054
3.801,-0.0037193
3.802,-0.0034332
3.803,-0.002861
3.804,-0.0025749
3.805,-0.0022888
3.806,-0.0005722
3.807,0.0011444
3.808,0.002861
3.809,0.0054359
3.81,0.0071526
3.811,0.008297
3.812,0.0102997
3.813,0.0105858
3.814,0.0102997
3.815,0.0105858
3.816,0.0117302
3.817,0.0128746
3.818,0.0143051
3.819,0.0160217
3.82,0.0171661
3.821,0.0180245
3.822,0.0180245
3.823,0.0183106
3.824,0.019455
3.825,0.0188828
3.826,0.0174522
3.827,0.01688
3.828,0.0160217
3.829,0.014019
3.83,0.0137329
3.831,0.0151634
3.832,0.0174522
3.833,0.0185967
3.834,0.0188828
3.835,0.0185967
3.836,0.0185967
3.837,0.0197411
3.838,0.0208855
3.839,0.0226021
3.84,0.0237465
3.841,0.0240326
3.842,0.0254631
3.843,0.0274658
3.844,0.0286102
3.845,0.0303269
3.846,0.0317574
3.847,0.033474
3.848,0.0360489
3.849,0.0383377
3.85,0.0400543
3.851,0.0434876
3.852,0.0472069
3.853,0.0500679
3.854,0.0526428
3.855,0.0555039
3.856,0.0577927
3.857,0.0597954
3.858,0.0609398
3.859,0.0620842
3.86,0.0629425
3.861,0.0649452
3.862,0.0678063
3.863,0.0709534
3.864,0.0735283
3.865,0.0749588
3.866,0.075531
3.867,0.0766754
3.868,0.0778198
3.869,0.078392
3.87,0.0795365
3.871,0.0803948
3.872,0.0806809
3.873,0.0818253
3.874,0.083828
3.875,0.0855446
3.876,0.0852585
3.877,0.0849724
3.878,0.0861168
3.879,0.0884056
3.88,0.08955
3.881,0.0901222
3.882,0.0915528
3.883,0.0941277
3.884,0.0967026
3.885,0.0998497
3.886,0.1027107
3.887,0.1058579
3.888,0.1087189
3.889,0.1101494
3.89,0.1095772
3.891,0.1087189
3.892,0.1087189
3.893,0.1110077
3.894,0.1127243
3.895,0.1127243
3.896,0.1115799
3.897,0.1107216
3.898,0.1112938
3.899,0.111866
3.9,0.1132965
3.901,0.1144409
3.902,0.1152992
3.903,0.1152992
3.904,0.1144409
3.905,0.1127243
3.906,0.111866
3.907,0.111866
3.908,0.1112938
3.909,0.1092911
3.91,0.1067162
3.911,0.1044274
3.912,0.1021385
3.913,0.1004219
3.914,0.0987053
3.915,0.0975609
3.916,0.0972748
3.917,0.0964165
3.918,0.0952721
3.919,0.0929833
3.92,0.0906944
3.921,0.0892639
3.922,0.0881195
3.923,0.0864029
3.924,0.0835419
3.925,0.0803948
3.926,0.0775337
3.927,0.0746727
3.928,0.0729561
3.929,0.0720978
3.93,0.0700951
3.931,0.0678063
3.932,0.0652313
3.933,0.061512
3.934,0.058651
3.935,0.0566483
3.936,0.0543594
3.937,0.0509262
3.938,0.0469208
3.939,0.0434876
3.94,0.0411987
3.941,0.0394821
3.942,0.0374794
3.943,0.0343323
3.944,0.0308991
3.945,0.0268936
3.946,0.0203133
3.947,0.0171661
3.948,0.0143051
3.949,0.0108719
3.95,0.008297
3.951,0.0040054
3.952,-0.0005722
3.953,-0.0042915
3.954,-0.0077248
3.955,-0.0105858
3.956,-0.0145912
3.957,-0.0200272
3.958,-0.0257492
3.959,-0.0291824
3.96,-0.0308991
3.961,-0.0337601
3.962,-0.0360489
3.963,-0.0374794
3.964,-0.0414848
3.965,-0.0449181
3.966,-0.0472069
3.967,-0.0492096
3.968,-0.050354
3.969,-0.0523567
3.97,-0.0552178
3.971,-0.058651
3.972,-0.0626564
3.973,-0.0663758
3.974,-0.0689507
3.975,-0.0709534
3.976,-0.0741005
3.977,-0.0781059
3.978,-0.080967
3.979,-0.0832558
3.98,-0.0861168
3.981,-0.0884056
3.982,-0.0904083
3.983,-0.0926972
3.984,-0.0952721
3.985,-0.0984192
3.986,-0.0998497
3.987,-0.1009941
3.988,-0.1012802
3.989,-0.1009941
3.99,-0.1021385
3.991,-0.1038551
3.992,-0.1055718
3.993,-0.1075745
3.994,-0.109005
3.995,-0.1098633
3.996,-0.111866
3.997,-0.1132965
3.998,-0.1141548
3.999,-0.1138687
4,-0.1135826
4.001,-0.1141548
4.002,-0.1135826
4.003,-0.1135826
4.004,-0.1138687
4.005,-0.1130104
4.006,-0.1127243
4.007,-0.111866
4.008,-0.1110077
4.009,-0.1107216
4.01,-0.1101494
4.011,-0.1098633
4.012,-0.1098633
4.013,-0.1084328
4.014,-0.106144
4.015,-0.1038551
4.016,-0.1029968
4.017,-0.1015663
4.018,-0.0998497
4.019,-0.0989914
4.02,-0.0987053
4.021,-0.0987053
4.022,-0.100708
4.023,-0.1015663
4.024,-0.1012802
4.025,-0.1029968
4.026,-0.1047135
4.027,-0.1055718
4.028,-0.1055718
4.029,-0.1058579
4.03,-0.1072884
4.031,-0.109005
4.032,-0.1095772
4.033,-0.1087189
4.034,-0.1078606
4.035,-0.1087189
4.036,-0.1087189
4.037,-0.1084328
4.038,-0.1075745
4.039,-0.1064301
4.04,-0.1064301
4.041,-0.1075745
4.042,-0.1084328
4.043,-0.1087189
4.044,-0.109005
4.045,-0.109005
4.046,-0.109005
4.047,-0.1087189
4.048,-0.1075745
4.049,-0.1067162
4.05,-0.1055718
4.051,-0.1041413
4.052,-0.1009941
4.053,-0.0984192
4.054,-0.0969887
4.055,-0.0958443
4.056,-0.0946999
4.057,-0.0938416
4.058,-0.0926972
4.059,-0.0909805
4.06,-0.0892639
4.061,-0.0872612
4.062,-0.0852585
4.063,-0.0835419
4.064,-0.0818253
4.065,-0.0798226
4.066,-0.078392
4.067,-0.0778198
4.068,-0.0778198
4.069,-0.0772476
4.07,-0.0772476
4.071,-0.0769615
4.072,-0.0769615
4.073,-0.0778198
4.074,-0.078392
4.075,-0.078392
4.076,-0.0778198
4.077,-0.0769615
4.078,-0.075531
4.079,-0.0752449
4.08,-0.0741005
4.081,-0.0735283
4.082,-0.0738144
4.083,-0.0738144
4.084,-0.0732422
4.085,-0.0718117
4.086,-0.0703812
4.087,-0.0686646
4.088,-0.0675202
4.089,-0.0658035
4.09,-0.0632286
4.091,-0.0623703
4.092,-0.0620842
4.093,-0.0617981
4.094,-0.0626564
4.095,-0.064373
4.096,-0.0660896
4.097,-0.0666618
4.098,-0.0658035
4.099,-0.0640869
4.1,-0.0629425
4.101,-0.0620842
4.102,-0.0623703
4.103,-0.0629425
4.104,-0.0638008
4.105,-0.0640869
4.106,-0.064373
4.107,-0.0660896
4.108,-0.0660896
4.109,-0.0663758
4.11,-0.066948
4.111,-0.0658035
4.112,-0.0638008
4.113,-0.0626564
4.114,-0.0623703
4.115,-0.0612259
4.116,-0.0600815
4.117,-0.0595093
4.118,-0.0580788
4.119,-0.0566483
4.12,-0.05579
4.121,-0.0552178
4.122,-0.0540733
4.123,-0.053215
4.124,-0.0512123
4.125,-0.0497818
4.126,-0.0494957
4.127,-0.0486374
4.128,-0.0477791
4.129,-0.0469208
4.13,-0.0457764
4.131,-0.0449181
4.132,-0.044632
4.133,-0.0443459
4.134,-0.0440598
4.135,-0.0443459
4.136,-0.044632
4.137,-0.044632
4.138,-0.0454903
4.139,-0.0466347
4.14,-0.0492096
4.141,-0.0517845
4.142,-0.0549317
4.143,-0.0577927
4.144,-0.058651
4.145,-0.0592232
4.146,-0.0609398
4.147,-0.0626564
4.148,-0.0632286
4.149,-0.0629425
4.15,-0.0629425
4.151,-0.0623703
4.152,-0.061512
4.153,-0.0600815
4.154,-0.0589371
4.155,-0.0583649
4.156,-0.0595093
4.157,-0.0600815
4.158,-0.0606537
4.159,-0.0606537
4.16,-0.0600815
4.161,-0.0597954
4.162,-0.0592232
4.163,-0.058651
4.164,-0.058651
4.165,-0.0595093
4.166,-0.0597954
4.167,-0.0603676
4.168,-0.0609398
4.169,-0.0612259
4.17,-0.0623703
4.171,-0.0623703
4.172,-0.0609398
4.173,-0.0600815
4.174,-0.0592232
4.175,-0.0583649
4.176,-0.0569344
4.177,-0.05579
4.178,-0.0560761
4.179,-0.0580788
4.18,-0.0612259
4.181,-0.061512
4.182,-0.0597954
4.183,-0.0595093
4.184,-0.0597954
4.185,-0.0595093
4.186,-0.0597954
4.187,-0.0606537
4.188,-0.0620842
4.189,-0.0629425
4.19,-0.0629425
4.191,-0.0649452
4.192,-0.0672341
4.193,-0.0686646
4.194,-0.0703812
4.195,-0.0723839
4.196,-0.0741005
4.197,-0.0743866
4.198,-0.0752449
4.199,-0.0763893
4.2,-0.0758171
4.201,-0.0749588
4.202,-0.0741005
4.203,-0.0735283
4.204,-0.0746727
4.205,-0.0749588
4.206,-0.0761032
4.207,-0.0778198
4.208,-0.0781059
4.209,-0.0778198
4.21,-0.0781059
4.211,-0.0781059
4.212,-0.0766754
4.213,-0.0749588
4.214,-0.0729561
4.215,-0.0712395
4.216,-0.069809
4.217,-0.0675202
4.218,-0.0658035
4.219,-0.0649452
4.22,-0.064373
4.221,-0.0623703
4.222,-0.0620842
4.223,-0.0620842
4.224,-0.0620842
4.225,-0.0620842
4.226,-0.0623703
4.227,-0.0626564
4.228,-0.0620842
4.229,-0.0620842
4.23,-0.0617981
4.231,-0.061512
4.232,-0.0609398
4.233,-0.061512
4.234,-0.0626564
4.235,-0.0623703
4.236,-0.061512
4.237,-0.0606537
4.238,-0.0597954
4.239,-0.0595093
4.24,-0.058651
4.241,-0.0575066
4.242,-0.0566483
4.243,-0.05579
4.244,-0.0540733
4.245,-0.0526428
4.246,-0.0512123
4.247,-0.0489235
4.248,-0.0477791
4.249,-0.0472069
4.25,-0.0440598
4.251,-0.0403404
4.252,-0.0386238
4.253,-0.0383377
4.254,-0.039196
4.255,-0.0400543
4.256,-0.0394821
4.257,-0.0397682
4.258,-0.0400543
4.259,-0.0389099
4.26,-0.0383377
4.261,-0.0383377
4.262,-0.0377655
4.263,-0.039196
4.264,-0.0411987
4.265,-0.0406265
4.266,-0.0403404
4.267,-0.042057
4.268,-0.0443459
4.269,-0.0463486
4.27,-0.0469208
4.271,-0.0466347
4.272,-0.0463486
4.273,-0.0477791
4.274,-0.0489235
4.275,-0.0506401
4.276,-0.0523567
4.277,-0.0523567
4.278,-0.0526428
4.279,-0.0535011
4.28,-0.053215
4.281,-0.0523567
4.282,-0.0526428
4.283,-0.0529289
4.284,-0.053215
4.285,-0.053215
4.286,-0.0514984
4.287,-0.0500679
4.288,-0.0489235
4.289,-0.0480652
4.29,-0.0472069
4.291,-0.0460625
4.292,-0.0440598
4.293,-0.0432015
4.294,-0.0437737
4.295,-0.0449181
4.296,-0.0454903
4.297,-0.0460625
4.298,-0.0469208
4.299,-0.0469208
4.3,-0.0454903
4.301,-0.0434876
4.302,-0.042057
4.303,-0.0429154
4.304,-0.0449181
4.305,-0.0463486
4.306,-0.0483513
4.307,-0.0489235
4.308,-0.0494957
4.309,-0.0509262
4.31,-0.0512123
4.311,-0.0512123
4.312,-0.0529289
4.313,-0.0549317
4.314,-0.0560761
4.315,-0.0566483
4.316,-0.0569344
4.317,-0.058651
4.318,-0.0595093
4.319,-0.0597954
4.32,-0.0592232
4.321,-0.0580788
4.322,-0.0572205
4.323,-0.0563622
4.324,-0.0572205
4.325,-0.0583649
4.326,-0.0589371
4.327,-0.0603676
4.328,-0.0609398
4.329,-0.0597954
4.33,-0.0583649
4.331,-0.0566483
4.332,-0.0543594
4.333,-0.0523567
4.334,-0.0494957
4.335,-0.0477791
4.336,-0.0477791
4.337,-0.0483513
4.338,-0.047493
4.339,-0.0466347
4.34,-0.0454903
4.341,-0.0434876
4.342,-0.0417709
4.343,-0.0400543
4.344,-0.0383377
4.345,-0.0369072
4.346,-0.0360489
4.347,-0.0357628
4.348,-0.0357628
4.349,-0.0351906
4.35,-0.0340462
4.351,-0.0329018
4.352,-0.0311852
4.353,-0.0291824
4.354,-0.0274658
4.355,-0.028038
4.356,-0.0286102
4.357,-0.0274658
4.358,-0.0268936
4.359,-0.0263214
4.36,-0.0257492
4.361,-0.0243187
4.362,-0.0228882
4.363,-0.0217438
4.364,-0.0200272
4.365,-0.0183106
4.366,-0.0171661
4.367,-0.0165939
4.368,-0.0165939
4.369,-0.0174522
4.37,-0.0185967
4.371,-0.0203133
4.372,-0.0214577
4.373,-0.0243187
4.374,-0.0286102
4.375,-0.0329018
4.376,-0.0366211
4.377,-0.0414848
4.378,-0.047493
4.379,-0.0514984
4.38,-0.0529289
4.381,-0.053215
4.382,-0.0517845
4.383,-0.0500679
4.384,-0.0483513
4.385,-0.0466347
4.386,-0.0452042
4.387,-0.0440598
4.388,-0.0423431
4.389,-0.0394821
4.39,-0.0351906
4.391,-0.0308991
4.392,-0.0260353
4.393,-0.0214577
4.394,-0.0163078
4.395,-0.0105858
4.396,-0.0065804
4.397,-0.0042915
4.398,-0.0025749
4.399,-0.0022888
4.4,-0.0025749
4.401,-0.0022888
4.402,-0.0017166
4.403,-0.0005722
4.404,0.0008583
4.405,0.0022888
4.406,0.002861
4.407,0.0017166
4.408,-0.0002861
4.409,-0.0025749
4.41,-0.0034332
4.411,-0.0034332
4.412,-0.0045776
4.413,-0.0060081
4.414,-0.0077248
4.415,-0.0091553
4.416,-0.0114441
4.417,-0.0131607
4.418,-0.0151634
4.419,-0.0177383
4.42,-0.0205994
4.421,-0.0228882
4.422,-0.0257492
4.423,-0.0294685
4.424,-0.0323296
4.425,-0.0349045
4.426,-0.0383377
4.427,-0.0426293
4.428,-0.0463486
4.429,-0.0497818
4.43,-0.0526428
4.431,-0.0540733
4.432,-0.0552178
4.433,-0.0560761
4.434,-0.0563622
4.435,-0.0572205
4.436,-0.058651
4.437,-0.0603676
4.438,-0.0629425
4.439,-0.0632286
4.44,-0.0626564
4.441,-0.0623703
4.442,-0.0612259
4.443,-0.0595093
4.444,-0.0580788
4.445,-0.0555039
4.446,-0.0535011
4.447,-0.0520706
4.448,-0.0492096
4.449,-0.0466347
4.45,-0.0434876
4.451,-0.0411987
4.452,-0.0394821
4.453,-0.0383377
4.454,-0.0371933
4.455,-0.0357628
4.456,-0.0354767
4.457,-0.0349045
4.458,-0.0343323
4.459,-0.0349045
4.46,-0.0349045
4.461,-0.0343323
4.462,-0.0346184
4.463,-0.0346184
4.464,-0.0343323
4.465,-0.0354767
4.466,-0.036335
4.467,-0.0377655
4.468,-0.0389099
4.469,-0.0389099
4.47,-0.0386238
4.471,-0.0383377
4.472,-0.0377655
4.473,-0.0386238
4.474,-0.0400543
4.475,-0.0400543
4.476,-0.0380516
4.477,-0.0351906
4.478,-0.0314713
4.479,-0.0271797
4.48,-0.0217438
4.481,-0.0131607
4.482,-0.0011444
4.483,0.0131607
4.484,0.0303269
4.485,0.0492096
4.486,0.0683785
4.487,0.0892639
4.488,0.111866
4.489,0.1324654
4.49,0.1536369
4.491,0.1753807
4.492,0.1968384
4.493,0.2174378
4.494,0.23489
4.495,0.2503395
4.496,0.2652169
4.497,0.2792359
4.498,0.2909661
4.499,0.2995491
4.5,0.3044129
4.501,0.3069878
4.502,0.30756
4.503,0.30756
4.504,0.3061295
4.505,0.3038407
4.506,0.3021241
4.507,0.3006936
4.508,0.2984048
4.509,0.2943993
4.51,0.288105
4.511,0.2826691
4.512,0.2749444
4.513,0.2635003
4.514,0.2509117
4.515,0.2363205
4.516,0.2211571
4.517,0.206852
4.518,0.1936913
4.519,0.1811028
4.52,0.1682282
4.521,0.1547814
4.522,0.1399041
4.523,0.1241684
4.524,0.1092911
4.525,0.0964165
4.526,0.0855446
4.527,0.0761032
4.528,0.0678063
4.529,0.061512
4.53,0.0592232
4.531,0.0600815
4.532,0.0629425
4.533,0.0663758
4.534,0.0695229
4.535,0.07267
4.536,0.0752449
4.537,0.0775337
4.538,0.0798226
4.539,0.0815392
4.54,0.0832558
4.541,0.0835419
4.542,0.0818253
4.543,0.0798226
4.544,0.0781059
4.545,0.0758171
4.546,0.0741005
4.547,0.0715256
4.548,0.0678063
4.549,0.0635147
4.55,0.0606537
4.551,0.0583649
4.552,0.0566483
4.553,0.0540733
4.554,0.050354
4.555,0.0463486
4.556,0.0437737
4.557,0.0414848
4.558,0.0383377
4.559,0.0340462
4.56,0.0297546
4.561,0.0260353
4.562,0.022316
4.563,0.0188828
4.564,0.0165939
4.565,0.0145912
4.566,0.0137329
4.567,0.0125885
4.568,0.0097275
4.569,0.0048637
4.57,0.0020027
4.571,0.0002861
4.572,-0.0014305
4.573,-0.0040054
4.574,-0.0065804
4.575,-0.0077248
4.576,-0.0088692
4.577,-0.0097275
4.578,-0.0105858
4.579,-0.011158
4.58,-0.0120163
4.581,-0.0123024
4.582,-0.0117302
4.583,-0.0105858
4.584,-0.0100136
4.585,-0.008297
4.586,-0.0065804
4.587,-0.005722
4.588,-0.0051498
4.589,-0.0051498
4.59,-0.0051498
4.591,-0.0048637
4.592,-0.0040054
4.593,-0.002861
4.594,-0.0014305
4.595,-0.0008583
4.596,0
4.597,0.0005722
4.598,0.0008583
4.599,0.0008583
4.6,0.0008583
4.601,0
4.602,-0.0002861
4.603,0.0002861
4.604,0.0014305
4.605,0.0020027
4.606,0.0022888
4.607,0.002861
4.608,0.0031471
4.609,0.002861
4.61,0.002861
4.611,0.0025749
4.612,0.0031471
4.613,0.0040054
4.614,0.0062943
4.615,0.0088692
4.616,0.0108719
4.617,0.0125885
4.618,0.0148773
4.619,0.0174522
4.62,0.0188828
4.621,0.0188828
4.622,0.0197411
4.623,0.0214577
4.624,0.0228882
4.625,0.0237465
4.626,0.0248909
4.627,0.0260353
4.628,0.028038
4.629,0.0294685
4.63,0.0297546
4.631,0.0297546
4.632,0.0308991
4.633,0.0329018
4.634,0.0354767
4.635,0.0371933
4.636,0.0383377
4.637,0.0383377
4.638,0.039196
4.639,0.0406265
4.64,0.0417709
4.641,0.0432015
4.642,0.0440598
4.643,0.0449181
4.644,0.0469208
4.645,0.0480652
4.646,0.0489235
4.647,0.050354
4.648,0.0520706
4.649,0.053215
4.65,0.053215
4.651,0.0526428
4.652,0.0526428
4.653,0.0523567
4.654,0.0529289
4.655,0.0526428
4.656,0.0506401
4.657,0.0489235
4.658,0.0480652
4.659,0.0483513
4.66,0.0489235
4.661,0.0486374
4.662,0.0492096
4.663,0.0506401
4.664,0.0526428
4.665,0.0546456
4.666,0.0569344
4.667,0.0589371
4.668,0.0609398
4.669,0.0626564
4.67,0.0649452
4.671,0.0678063
4.672,0.0715256
4.673,0.075531
4.674,0.0789642
4.675,0.0815392
4.676,0.083828
4.677,0.0849724
4.678,0.0864029
4.679,0.0875473
4.68,0.0884056
4.681,0.0889778
4.682,0.0898361
4.683,0.0912667
4.684,0.0938416
4.685,0.0958443
4.686,0.0975609
4.687,0.0987053
4.688,0.0998497
4.689,0.100708
4.69,0.1012802
4.691,0.1021385
4.692,0.1029968
4.693,0.103569
4.694,0.106144
4.695,0.1075745
4.696,0.109005
4.697,0.1110077
4.698,0.1121521
4.699,0.1138687
4.7,0.1161575
4.701,0.1187325
4.702,0.1210213
4.703,0.1235962
4.704,0.1261711
4.705,0.1270294
4.706,0.1273155
4.707,0.1281739
4.708,0.12846
4.709,0.12846
4.71,0.1290321
4.711,0.12846
4.712,0.12846
4.713,0.12846
4.714,0.1290321
4.715,0.1301766
4.716,0.131321
4.717,0.1318932
4.718,0.1321793
4.719,0.1318932
4.72,0.1310349
4.721,0.1301766
4.722,0.1293183
4.723,0.1281739
4.724,0.1264572
4.725,0.1250267
4.726,0.1238823
4.727,0.1227379
4.728,0.1218796
4.729,0.1207352
4.73,0.1195908
4.731,0.1178742
4.732,0.1164437
4.733,0.1152992
4.734,0.1127243
4.735,0.1098633
4.736,0.1072884
4.737,0.1049996
4.738,0.1021385
4.739,0.0995636
4.74,0.0972748
4.741,0.0944138
4.742,0.0904083
4.743,0.0858307
4.744,0.0812531
4.745,0.0766754
4.746,0.0718117
4.747,0.0675202
4.748,0.0632286
4.749,0.0592232
4.75,0.0555039
4.751,0.0517845
4.752,0.0494957
4.753,0.0466347
4.754,0.042057
4.755,0.0371933
4.756,0.0323296
4.757,0.028038
4.758,0.0237465
4.759,0.0203133
4.76,0.0177383
4.761,0.0148773
4.762,0.0117302
4.763,0.008297
4.764,0.0045776
4.765,0.0020027
4.766,0.0002861
4.767,-0.0017166
4.768,-0.0031471
4.769,-0.0068665
4.77,-0.0102997
4.771,-0.0125885
4.772,-0.0148773
4.773,-0.0174522
4.774,-0.0211716
4.775,-0.0254631
4.776,-0.0294685
4.777,-0.033474
4.778,-0.0369072
4.779,-0.0403404
4.78,-0.0423431
4.781,-0.0434876
4.782,-0.0454903
4.783,-0.0486374
4.784,-0.0506401
4.785,-0.0535011
4.786,-0.0569344
4.787,-0.0597954
4.788,-0.0629425
4.789,-0.0649452
4.79,-0.066948
4.791,-0.0689507
4.792,-0.0703812
4.793,-0.07267
4.794,-0.0741005
4.795,-0.0746727
4.796,-0.0738144
4.797,-0.0735283
4.798,-0.0743866
4.799,-0.0743866
4.8,-0.0743866
4.801,-0.075531
4.802,-0.0758171
4.803,-0.0746727
4.804,-0.0741005
4.805,-0.0752449
4.806,-0.0772476
4.807,-0.0786782
4.808,-0.0792504
4.809,-0.0803948
4.81,-0.0801087
4.811,-0.0801087
4.812,-0.080967
4.813,-0.0832558
4.814,-0.0849724
4.815,-0.0852585
4.816,-0.0855446
4.817,-0.0861168
4.818,-0.0869751
4.819,-0.0872612
4.82,-0.0878334
4.821,-0.0889778
4.822,-0.0889778
4.823,-0.0884056
4.824,-0.0884056
4.825,-0.0886917
4.826,-0.0886917
4.827,-0.0884056
4.828,-0.0892639
4.829,-0.0904083
4.83,-0.0909805
4.831,-0.092125
4.832,-0.0929833
4.833,-0.0926972
4.834,-0.092125
4.835,-0.0906944
4.836,-0.08955
4.837,-0.0889778
4.838,-0.0884056
4.839,-0.0875473
4.84,-0.0884056
4.841,-0.0889778
4.842,-0.0892639
4.843,-0.08955
4.844,-0.0892639
4.845,-0.0889778
4.846,-0.0881195
4.847,-0.0855446
4.848,-0.0821114
4.849,-0.0792504
4.85,-0.0775337
4.851,-0.0746727
4.852,-0.0732422
4.853,-0.0741005
4.854,-0.0746727
4.855,-0.0741005
4.856,-0.0743866
4.857,-0.0743866
4.858,-0.0738144
4.859,-0.0729561
4.86,-0.0720978
4.861,-0.0720978
4.862,-0.0715256
4.863,-0.0709534
4.864,-0.0712395
4.865,-0.0729561
4.866,-0.0743866
4.867,-0.075531
4.868,-0.0763893
4.869,-0.0775337
4.87,-0.0769615
4.871,-0.0775337
4.872,-0.0789642
4.873,-0.0792504
4.874,-0.0789642
4.875,-0.0789642
4.876,-0.0798226
4.877,-0.0803948
4.878,-0.0801087
4.879,-0.0798226
4.88,-0.0801087
4.881,-0.0792504
4.882,-0.0775337
4.883,-0.0749588
4.884,-0.0720978
4.885,-0.0703812
4.886,-0.0680924
4.887,-0.0666618
4.888,-0.064373
4.889,-0.0623703
4.89,-0.0620842
4.891,-0.0620842
4.892,-0.061512
4.893,-0.0597954
4.894,-0.0577927
4.895,-0.0569344
4.896,-0.0566483
4.897,-0.0555039
4.898,-0.0549317
4.899,-0.0540733
4.9,-0.0535011
4.901,-0.0537872
4.902,-0.0537872
4.903,-0.0540733
4.904,-0.0535011
4.905,-0.0540733
4.906,-0.0537872
4.907,-0.0526428
4.908,-0.0523567
4.909,-0.0526428
4.91,-0.0540733
4.911,-0.0540733
4.912,-0.0535011
4.913,-0.0540733
4.914,-0.0540733
4.915,-0.053215
4.916,-0.0526428
4.917,-0.0523567
4.918,-0.0520706
4.919,-0.0514984
4.92,-0.0514984
4.921,-0.0514984
4.922,-0.0509262
4.923,-0.0512123
4.924,-0.0514984
4.925,-0.0517845
4.926,-0.0520706
4.927,-0.0523567
4.928,-0.0537872
4.929,-0.0546456
4.93,-0.0543594
4.931,-0.0526428
4.932,-0.0506401
4.933,-0.0497818
4.934,-0.0500679
4.935,-0.0494957
4.936,-0.0480652
4.937,-0.047493
4.938,-0.0483513
4.939,-0.050354
4.94,-0.0506401
4.941,-0.0500679
4.942,-0.0497818
4.943,-0.0492096
4.944,-0.047493
4.945,-0.0460625
4.946,-0.0460625
4.947,-0.0460625
4.948,-0.0463486
4.949,-0.0452042
4.95,-0.0437737
4.951,-0.0426293
4.952,-0.0426293
4.953,-0.0434876
4.954,-0.0440598
4.955,-0.0440598
4.956,-0.0423431
4.957,-0.0411987
4.958,-0.0411987
4.959,-0.0409126
4.96,-0.0406265
4.961,-0.042057
4.962,-0.0437737
4.963,-0.0434876
4.964,-0.0414848
4.965,-0.0409126
4.966,-0.0432015
4.967,-0.0443459
4.968,-0.044632
4.969,-0.044632
4.97,-0.0452042
4.971,-0.0454903
4.972,-0.0454903
4.973,-0.0463486
4.974,-0.047493
4.975,-0.0489235
4.976,-0.0497818
4.977,-0.0497818
4.978,-0.0489235
4.979,-0.0483513
4.98,-0.0480652
4.981,-0.0483513
4.982,-0.047493
4.983,-0.0463486
4.984,-0.0460625
4.985,-0.0460625
4.986,-0.0457764
4.987,-0.0452042
4.988,-0.0449181
4.989,-0.0449181
4.99,-0.0452042
4.991,-0.0460625
4.992,-0.0454903
4.993,-0.0454903
4.994,-0.0454903
4.995,-0.0452042
4.996,-0.0449181
4.997,-0.0449181
4.998,-0.0449181
4.999,-0.0460625
5,-0.0463486
5.001,-0.0449181
5.002,-0.0429154
5.003,-0.0414848
5.004,-0.0414848
5.005,-0.0417709
5.006,-0.042057
5.007,-0.042057
5.008,-0.0429154
5.009,-0.0437737
5.01,-0.0432015
5.011,-0.0432015
5.012,-0.0429154
5.013,-0.042057
5.014,-0.0411987
5.015,-0.0406265
5.016,-0.0400543
5.017,-0.0403404
5.018,-0.0417709
5.019,-0.0437737
5.02,-0.0452042
5.021,-0.0457764
5.022,-0.0460625
5.023,-0.0469208
5.024,-0.047493
5.025,-0.0472069
5.026,-0.047493
5.027,-0.0489235
5.028,-0.0494957
5.029,-0.0514984
5.03,-0.0540733
5.031,-0.0563622
5.032,-0.0575066
5.033,-0.0572205
5.034,-0.0563622
5.035,-0.0560761
5.036,-0.0555039
5.037,-0.0560761
5.038,-0.0577927
5.039,-0.0592232
5.04,-0.0597954
5.041,-0.0612259
5.042,-0.0626564
5.043,-0.0629425
5.044,-0.0620842
5.045,-0.0629425
5.046,-0.0629425
5.047,-0.0612259
5.048,-0.058651
5.049,-0.0566483
5.05,-0.05579
5.051,-0.0552178
5.052,-0.0552178
5.053,-0.0555039
5.054,-0.0552178
5.055,-0.0543594
5.056,-0.0546456
5.057,-0.0549317
5.058,-0.0555039
5.059,-0.0555039
5.06,-0.0552178
5.061,-0.0543594
5.062,-0.053215
5.063,-0.0523567
5.064,-0.0517845
5.065,-0.0523567
5.066,-0.0523567
5.067,-0.0520706
5.068,-0.0509262
5.069,-0.0492096
5.07,-0.0477791
5.071,-0.0472069
5.072,-0.0463486
5.073,-0.0452042
5.074,-0.0432015
5.075,-0.042057
5.076,-0.042057
5.077,-0.0432015
5.078,-0.0454903
5.079,-0.0469208
5.08,-0.0486374
5.081,-0.0492096
5.082,-0.0483513
5.083,-0.0472069
5.084,-0.0466347
5.085,-0.0466347
5.086,-0.0480652
5.087,-0.0489235
5.088,-0.0494957
5.089,-0.0509262
5.09,-0.0526428
5.091,-0.0540733
5.092,-0.0537872
5.093,-0.0535011
5.094,-0.0523567
5.095,-0.0506401
5.096,-0.0506401
5.097,-0.0500679
5.098,-0.0492096
5.099,-0.0486374
5.1,-0.0486374
5.101,-0.0480652
5.102,-0.0469208
5.103,-0.0452042
5.104,-0.044632
5.105,-0.0440598
5.106,-0.0429154
5.107,-0.0423431
5.108,-0.0429154
5.109,-0.0440598
5.11,-0.0443459
5.111,-0.0437737
5.112,-0.0437737
5.113,-0.0437737
5.114,-0.0440598
5.115,-0.0443459
5.116,-0.0449181
5.117,-0.0457764
5.118,-0.0463486
5.119,-0.0457764
5.12,-0.0443459
5.121,-0.0432015
5.122,-0.0423431
5.123,-0.0417709
5.124,-0.0411987
5.125,-0.0409126
5.126,-0.0414848
5.127,-0.042057
5.128,-0.0417709
5.129,-0.042057
5.13,-0.0417709
5.131,-0.0406265
5.132,-0.039196
5.133,-0.0366211
5.134,-0.0340462
5.135,-0.0329018
5.136,-0.0340462
5.137,-0.0357628
5.138,-0.0357628
5.139,-0.0369072
5.14,-0.0383377
5.141,-0.0386238
5.142,-0.0389099
5.143,-0.0386238
5.144,-0.0380516
5.145,-0.0394821
5.146,-0.0400543
5.147,-0.0394821
5.148,-0.0380516
5.149,-0.036335
5.15,-0.0357628
5.151,-0.0360489
5.152,-0.0351906
5.153,-0.0337601
5.154,-0.0331879
5.155,-0.0331879
5.156,-0.0331879
5.157,-0.0329018
5.158,-0.0329018
5.159,-0.0326157
5.16,-0.0323296
5.161,-0.0337601
5.162,-0.0360489
5.163,-0.0377655
5.164,-0.0386238
5.165,-0.039196
5.166,-0.0394821
5.167,-0.0394821
5.168,-0.0400543
5.169,-0.0409126
5.17,-0.0414848
5.171,-0.0414848
5.172,-0.0417709
5.173,-0.0411987
5.174,-0.0411987
5.175,-0.0414848
5.176,-0.0414848
5.177,-0.0411987
5.178,-0.0403404
5.179,-0.039196
5.18,-0.0377655
5.181,-0.0366211
5.182,-0.0346184
5.183,-0.0340462
5.184,-0.0346184
5.185,-0.0340462
5.186,-0.0331879
5.187,-0.0329018
5.188,-0.0340462
5.189,-0.0351906
5.19,-0.0360489
5.191,-0.0357628
5.192,-0.0343323
5.193,-0.0329018
5.194,-0.0320435
5.195,-0.0314713
5.196,-0.0303269
5.197,-0.0286102
5.198,-0.0274658
5.199,-0.0271797
5.2,-0.0268936
5.201,-0.0248909
5.202,-0.0228882
5.203,-0.0214577
5.204,-0.0205994
5.205,-0.0177383
5.206,-0.0151634
5.207,-0.0137329
5.208,-0.0134468
5.209,-0.0134468
5.21,-0.0125885
5.211,-0.0117302
5.212,-0.0094414
5.213,-0.0074387
5.214,-0.005722
5.215,-0.0040054
5.216,-0.0020027
5.217,0.0005722
5.218,0.0022888
5.219,0.0040054
5.22,0.0062943
5.221,0.008297
5.222,0.0085831
5.223,0.0077248
5.224,0.0074387
5.225,0.0088692
5.226,0.0091553
5.227,0.0091553
5.228,0.0094414
5.229,0.0097275
5.23,0.0097275
5.231,0.0108719
5.232,0.0117302
5.233,0.0123024
5.234,0.0114441
5.235,0.0097275
5.236,0.0071526
5.237,0.0040054
5.238,0.0005722
5.239,-0.0020027
5.24,-0.0042915
5.241,-0.0068665
5.242,-0.0094414
5.243,-0.0105858
5.244,-0.0123024
5.245,-0.0151634
5.246,-0.0171661
5.247,-0.0174522
5.248,-0.0171661
5.249,-0.0177383
5.25,-0.01688
5.251,-0.0145912
5.252,-0.0120163
5.253,-0.0085831
5.254,-0.0054359
5.255,-0.0017166
5.256,0.0017166
5.257,0.0045776
5.258,0.0068665
5.259,0.0085831
5.26,0.0097275
5.261,0.0114441
5.262,0.0143051
5.263,0.0163078
5.264,0.0174522
5.265,0.0171661
5.266,0.0177383
5.267,0.0165939
5.268,0.0148773
5.269,0.0143051
5.27,0.0125885
5.271,0.0108719
5.272,0.008297
5.273,0.0054359
5.274,0.0031471
5.275,0.0014305
5.276,0
5.277,-0.0011444
5.278,-0.0031471
5.279,-0.0065804
5.28,-0.0105858
5.281,-0.014019
5.282,-0.0165939
5.283,-0.0188828
5.284,-0.0217438
5.285,-0.0246048
5.286,-0.0277519
5.287,-0.0303269
5.288,-0.0329018
5.289,-0.0351906
5.29,-0.0374794
5.291,-0.0400543
5.292,-0.0423431
5.293,-0.0432015
5.294,-0.0443459
5.295,-0.0443459
5.296,-0.0443459
5.297,-0.0440598
5.298,-0.0432015
5.299,-0.042057
5.3,-0.0409126
5.301,-0.0386238
5.302,-0.0369072
5.303,-0.036335
5.304,-0.0357628
5.305,-0.0354767
5.306,-0.0354767
5.307,-0.0349045
5.308,-0.0329018
5.309,-0.0314713
5.31,-0.0320435
5.311,-0.0326157
5.312,-0.0331879
5.313,-0.033474
5.314,-0.0323296
5.315,-0.0311852
5.316,-0.0308991
5.317,-0.0314713
5.318,-0.0323296
5.319,-0.0323296
5.32,-0.0317574
5.321,-0.0320435
5.322,-0.0323296
5.323,-0.0320435
5.324,-0.0329018
5.325,-0.0343323
5.326,-0.0351906
5.327,-0.0354767
5.328,-0.0349045
5.329,-0.0349045
5.33,-0.0351906
5.331,-0.0354767
5.332,-0.0354767
5.333,-0.0343323
5.334,-0.0331879
5.335,-0.0326157
5.336,-0.0326157
5.337,-0.0314713
5.338,-0.0303269
5.339,-0.0288963
5.34,-0.028038
5.341,-0.0260353
5.342,-0.0231743
5.343,-0.0200272
5.344,-0.014019
5.345,-0.0068665
5.346,0.0008583
5.347,0.0125885
5.348,0.0271797
5.349,0.0443459
5.35,0.0626564
5.351,0.0829697
5.352,0.1058579
5.353,0.12846
5.354,0.1487732
5.355,0.1699448
5.356,0.1908303
5.357,0.2108574
5.358,0.2308846
5.359,0.248909
5.36,0.2649308
5.361,0.2792359
5.362,0.2915383
5.363,0.3021241
5.364,0.3107072
5.365,0.3161431
5.366,0.3190041
5.367,0.3204346
5.368,0.321579
5.369,0.3207207
5.37,0.3190041
5.371,0.3184319
5.372,0.3170014
5.373,0.3149987
5.374,0.3115654
5.375,0.3055573
5.376,0.2978325
5.377,0.2886772
5.378,0.2755166
5.379,0.2609253
5.38,0.2463341
5.381,0.232029
5.382,0.2174378
5.383,0.2025605
5.384,0.1871109
5.385,0.170517
5.386,0.1522064
5.387,0.1338959
5.388,0.1158715
5.389,0.0984192
5.39,0.0829697
5.391,0.0712395
5.392,0.0620842
5.393,0.05579
5.394,0.0529289
5.395,0.0529289
5.396,0.0549317
5.397,0.0572205
5.398,0.0589371
5.399,0.0612259
5.4,0.0646591
5.401,0.0686646
5.402,0.0715256
5.403,0.0749588
5.404,0.0769615
5.405,0.0769615
5.406,0.0772476
5.407,0.0758171
5.408,0.0723839
5.409,0.0678063
5.41,0.0638008
5.411,0.0597954
5.412,0.0560761
5.413,0.0526428
5.414,0.0509262
5.415,0.0486374
5.416,0.0452042
5.417,0.0403404
5.418,0.036335
5.419,0.0337601
5.42,0.0300408
5.421,0.028038
5.422,0.0260353
5.423,0.0231743
5.424,0.0200272
5.425,0.0163078
5.426,0.0137329
5.427,0.011158
5.428,0.0088692
5.429,0.0060081
5.43,0.0025749
5.431,0.0002861
5.432,-0.0002861
5.433,-0.0008583
5.434,-0.0005722
5.435,-0.0005722
5.436,-0.0017166
5.437,-0.0025749
5.438,-0.0031471
5.439,-0.0037193
5.44,-0.0042915
5.441,-0.0037193
5.442,-0.002861
5.443,-0.0031471
5.444,-0.0034332
5.445,-0.0037193
5.446,-0.0025749
5.447,-0.0005722
5.448,0.0005722
5.449,0.0008583
5.45,0.0014305
5.451,0.0017166
5.452,0.0011444
5.453,0.0008583
5.454,0.0014305
5.455,0.0011444
5.456,0.0011444
5.457,0.0020027
5.458,0.0014305
5.459,0.0020027
5.46,0.0042915
5.461,0.0068665
5.462,0.0085831
5.463,0.0091553
5.464,0.0085831
5.465,0.008297
5.466,0.0097275
5.467,0.0102997
5.468,0.0100136
5.469,0.0102997
5.47,0.0108719
5.471,0.011158
5.472,0.0117302
5.473,0.0131607
5.474,0.0128746
5.475,0.0123024
5.476,0.0120163
5.477,0.0097275
5.478,0.0068665
5.479,0.0051498
5.48,0.0060081
5.481,0.0077248
5.482,0.0088692
5.483,0.0091553
5.484,0.0102997
5.485,0.0128746
5.486,0.0145912
5.487,0.0157356
5.488,0.01688
5.489,0.0185967
5.49,0.019455
5.491,0.0203133
5.492,0.0217438
5.493,0.0234604
5.494,0.0268936
5.495,0.030613
5.496,0.0331879
5.497,0.0340462
5.498,0.0346184
5.499,0.0357628
5.5,0.0374794
5.501,0.0386238
5.502,0.0383377
5.503,0.0389099
5.504,0.0394821
5.505,0.0403404
5.506,0.0409126
5.507,0.0409126
5.508,0.0414848
5.509,0.0429154
5.51,0.0437737
5.511,0.044632
5.512,0.0449181
5.513,0.044632
5.514,0.0469208
5.515,0.0492096
5.516,0.0514984
5.517,0.0543594
5.518,0.0575066
5.519,0.0603676
5.52,0.0626564
5.521,0.0649452
5.522,0.0672341
5.523,0.0700951
5.524,0.0729561
5.525,0.075531
5.526,0.0766754
5.527,0.0781059
5.528,0.0792504
5.529,0.0806809
5.53,0.0826836
5.531,0.0829697
5.532,0.0844002
5.533,0.0849724
5.534,0.0846863
5.535,0.0841141
5.536,0.0849724
5.537,0.0861168
5.538,0.086689
5.539,0.0864029
5.54,0.0849724
5.541,0.083828
5.542,0.0844002
5.543,0.0855446
5.544,0.086689
5.545,0.0881195
5.546,0.0901222
5.547,0.092125
5.548,0.0952721
5.549,0.0981331
5.55,0.1015663
5.551,0.1058579
5.552,0.1092911
5.553,0.1112938
5.554,0.1130104
5.555,0.1152992
5.556,0.1181603
5.557,0.1210213
5.558,0.1233101
5.559,0.1241684
5.56,0.1250267
5.561,0.125885
5.562,0.125885
5.563,0.1264572
5.564,0.1278878
5.565,0.128746
5.566,0.1301766
5.567,0.1318932
5.568,0.1318932
5.569,0.1321793
5.57,0.1321793
5.571,0.1321793
5.572,0.1333237
5.573,0.1347542
5.574,0.1356125
5.575,0.1358986
5.576,0.1361847
5.577,0.1364708
5.578,0.1381874
5.579,0.1407623
5.58,0.1430512
5.581,0.1447678
5.582,0.1459122
5.583,0.1459122
5.584,0.1456261
5.585,0.1467705
5.586,0.1476288
5.587,0.1484871
5.588,0.1487732
5.589,0.1459122
5.59,0.1421929
5.591,0.1401902
5.592,0.1399041
5.593,0.1396179
5.594,0.1384735
5.595,0.1367569
5.596,0.1347542
5.597,0.1321793
5.598,0.1304627
5.599,0.128746
5.6,0.1267433
5.601,0.1250267
5.602,0.1218796
5.603,0.1178742
5.604,0.1150131
5.605,0.1124382
5.606,0.1110077
5.607,0.109005
5.608,0.1049996
5.609,0.100708
5.61,0.0975609
5.611,0.094986
5.612,0.0904083
5.613,0.0855446
5.614,0.0806809
5.615,0.0758171
5.616,0.0718117
5.617,0.0680924
5.618,0.0638008
5.619,0.0597954
5.62,0.05579
5.621,0.0512123
5.622,0.0463486
5.623,0.0409126
5.624,0.0360489
5.625,0.0323296
5.626,0.0283241
5.627,0.0240326
5.628,0.0200272
5.629,0.0165939
5.63,0.014019
5.631,0.0117302
5.632,0.0100136
5.633,0.0080109
5.634,0.0060081
5.635,0.0022888
5.636,0
5.637,-0.0025749
5.638,-0.0051498
5.639,-0.008297
5.64,-0.0128746
5.641,-0.0174522
5.642,-0.0205994
5.643,-0.0237465
5.644,-0.0277519
5.645,-0.0326157
5.646,-0.0374794
5.647,-0.0414848
5.648,-0.0466347
5.649,-0.0514984
5.65,-0.0560761
5.651,-0.0603676
5.652,-0.0640869
5.653,-0.0689507
5.654,-0.0732422
5.655,-0.0761032
5.656,-0.0792504
5.657,-0.0815392
5.658,-0.0832558
5.659,-0.0864029
5.66,-0.0901222
5.661,-0.0929833
5.662,-0.094986
5.663,-0.0967026
5.664,-0.0975609
5.665,-0.0975609
5.666,-0.097847
5.667,-0.0989914
5.668,-0.100708
5.669,-0.1021385
5.67,-0.1032829
5.671,-0.1049996
5.672,-0.1072884
5.673,-0.1087189
5.674,-0.109005
5.675,-0.1092911
5.676,-0.1098633
5.677,-0.1095772
5.678,-0.1092911
5.679,-0.109005
5.68,-0.1087189
5.681,-0.1087189
5.682,-0.1078606
5.683,-0.1075745
5.684,-0.1070023
5.685,-0.1058579
5.686,-0.103569
5.687,-0.100708
5.688,-0.0981331
5.689,-0.0969887
5.69,-0.0961304
5.691,-0.0961304
5.692,-0.0961304
5.693,-0.0967026
5.694,-0.097847
5.695,-0.0987053
5.696,-0.0995636
5.697,-0.0995636
5.698,-0.0995636
5.699,-0.0992775
5.7,-0.0984192
5.701,-0.0967026
5.702,-0.0946999
5.703,-0.0941277
5.704,-0.0952721
5.705,-0.0955582
5.706,-0.0958443
5.707,-0.0967026
5.708,-0.0981331
5.709,-0.0998497
5.71,-0.1004219
5.711,-0.0992775
5.712,-0.097847
5.713,-0.0958443
5.714,-0.0941277
5.715,-0.0924111
5.716,-0.0906944
5.717,-0.0892639
5.718,-0.0881195
5.719,-0.0875473
5.72,-0.0872612
5.721,-0.0861168
5.722,-0.0852585
5.723,-0.0852585
5.724,-0.083828
5.725,-0.0826836
5.726,-0.0806809
5.727,-0.0789642
5.728,-0.0789642
5.729,-0.0792504
5.73,-0.0795365
5.731,-0.0795365
5.732,-0.0789642
5.733,-0.0778198
5.734,-0.0766754
5.735,-0.0758171
5.736,-0.0746727
5.737,-0.0738144
5.738,-0.0743866
5.739,-0.0761032
5.74,-0.0763893
5.741,-0.0766754
5.742,-0.0766754
5.743,-0.0761032
5.744,-0.0763893
5.745,-0.0758171
5.746,-0.0746727
5.747,-0.0732422
5.748,-0.0720978
5.749,-0.0709534
5.75,-0.0709534
5.751,-0.0709534
5.752,-0.0709534
5.753,-0.0715256
5.754,-0.0718117
5.755,-0.0706673
5.756,-0.0692368
5.757,-0.0683785
5.758,-0.0683785
5.759,-0.0680924
5.76,-0.066948
5.761,-0.0646591
5.762,-0.0635147
5.763,-0.0632286
5.764,-0.0632286
5.765,-0.0623703
5.766,-0.061512
5.767,-0.0606537
5.768,-0.0603676
5.769,-0.0609398
5.77,-0.0603676
5.771,-0.0592232
5.772,-0.0589371
5.773,-0.058651
5.774,-0.058651
5.775,-0.0580788
5.776,-0.0577927
5.777,-0.0583649
5.778,-0.0595093
5.779,-0.0589371
5.78,-0.0572205
5.781,-0.05579
5.782,-0.0552178
5.783,-0.0540733
5.784,-0.0535011
5.785,-0.0523567
5.786,-0.0514984
5.787,-0.0514984
5.788,-0.0517845
5.789,-0.0520706
5.79,-0.0529289
5.791,-0.0543594
5.792,-0.0552178
5.793,-0.0549317
5.794,-0.0543594
5.795,-0.0543594
5.796,-0.0552178
5.797,-0.0555039
5.798,-0.0552178
5.799,-0.0540733
5.8,-0.0537872
5.801,-0.0546456
5.802,-0.0555039
5.803,-0.0543594
5.804,-0.0526428
5.805,-0.0523567
5.806,-0.0520706
5.807,-0.0523567
5.808,-0.0523567
5.809,-0.0540733
5.81,-0.05579
5.811,-0.0563622
5.812,-0.0560761
5.813,-0.0555039
5.814,-0.0552178
5.815,-0.0546456
5.816,-0.0535011
5.817,-0.0517845
5.818,-0.050354
5.819,-0.050354
5.82,-0.0514984
5.821,-0.0526428
5.822,-0.053215
5.823,-0.0529289
5.824,-0.0517845
5.825,-0.0489235
5.826,-0.0452042
5.827,-0.0429154
5.828,-0.0426293
5.829,-0.0429154
5.83,-0.0423431
5.831,-0.0426293
5.832,-0.0429154
5.833,-0.0429154
5.834,-0.0432015
5.835,-0.0429154
5.836,-0.0426293
5.837,-0.0411987
5.838,-0.0400543
5.839,-0.0400543
5.84,-0.0411987
5.841,-0.0437737
5.842,-0.0469208
5.843,-0.0497818
5.844,-0.0509262
5.845,-0.0520706
5.846,-0.0520706
5.847,-0.0520706
5.848,-0.0512123
5.849,-0.0509262
5.85,-0.0523567
5.851,-0.0535011
5.852,-0.0537872
5.853,-0.0535011
5.854,-0.0549317
5.855,-0.0577927
5.856,-0.0603676
5.857,-0.0620842
5.858,-0.0623703
5.859,-0.0620842
5.86,-0.0629425
5.861,-0.064373
5.862,-0.0652313
5.863,-0.066948
5.864,-0.0680924
5.865,-0.0692368
5.866,-0.0695229
5.867,-0.0686646
5.868,-0.0683785
5.869,-0.0689507
5.87,-0.0706673
5.871,-0.0715256
5.872,-0.0709534
5.873,-0.0692368
5.874,-0.0683785
5.875,-0.0683785
5.876,-0.0680924
5.877,-0.0658035
5.878,-0.0640869
5.879,-0.0640869
5.88,-0.0638008
5.881,-0.0640869
5.882,-0.0646591
5.883,-0.0635147
5.884,-0.0626564
5.885,-0.0620842
5.886,-0.0617981
5.887,-0.0620842
5.888,-0.0626564
5.889,-0.0632286
5.89,-0.0646591
5.891,-0.0658035
5.892,-0.0660896
5.893,-0.0666618
5.894,-0.0675202
5.895,-0.0675202
5.896,-0.0675202
5.897,-0.0672341
5.898,-0.0666618
5.899,-0.0658035
5.9,-0.0658035
5.901,-0.0660896
5.902,-0.0658035
5.903,-0.0652313
5.904,-0.0635147
5.905,-0.0629425
5.906,-0.0638008
5.907,-0.0649452
5.908,-0.064373
5.909,-0.0638008
5.91,-0.0635147
5.911,-0.0640869
5.912,-0.0652313
5.913,-0.0646591
5.914,-0.0629425
5.915,-0.061512
5.916,-0.0597954
5.917,-0.0595093
5.918,-0.0597954
5.919,-0.0606537
5.92,-0.0617981
5.921,-0.0629425
5.922,-0.0629425
5.923,-0.0623703
5.924,-0.0617981
5.925,-0.0620842
5.926,-0.0626564
5.927,-0.0626564
5.928,-0.0632286
5.929,-0.0635147
5.93,-0.0640869
5.931,-0.064373
5.932,-0.064373
5.933,-0.0640869
5.934,-0.0626564
5.935,-0.0617981
5.936,-0.061512
5.937,-0.0612259
5.938,-0.0612259
5.939,-0.0606537
5.94,-0.0592232
5.941,-0.058651
5.942,-0.0600815
5.943,-0.0612259
5.944,-0.0617981
5.945,-0.0620842
5.946,-0.0617981
5.947,-0.0600815
5.948,-0.0583649
5.949,-0.0575066
5.95,-0.0566483
5.951,-0.0566483
5.952,-0.0566483
5.953,-0.0555039
5.954,-0.0535011
5.955,-0.0529289
5.956,-0.0535011
5.957,-0.0549317
5.958,-0.0552178
5.959,-0.0535011
5.96,-0.0517845
5.961,-0.0509262
5.962,-0.050354
5.963,-0.0500679
5.964,-0.0494957
5.965,-0.0497818
5.966,-0.0497818
5.967,-0.0494957
5.968,-0.0492096
5.969,-0.0492096
5.97,-0.0494957
5.971,-0.0494957
5.972,-0.0494957
5.973,-0.0500679
5.974,-0.0500679
5.975,-0.050354
5.976,-0.0526428
5.977,-0.0540733
5.978,-0.0543594
5.979,-0.0540733
5.98,-0.0535011
5.981,-0.0540733
5.982,-0.0540733
5.983,-0.0540733
5.984,-0.0537872
5.985,-0.0529289
5.986,-0.0520706
5.987,-0.0520706
5.988,-0.0526428
5.989,-0.0526428
5.99,-0.0517845
5.991,-0.0514984
5.992,-0.0506401
5.993,-0.0483513
5.994,-0.0454903
5.995,-0.0449181
5.996,-0.0452042
5.997,-0.0443459
5.998,-0.0434876
5.999,-0.0423431
6,-0.0411987
6.001,-0.0403404
6.002,-0.0403404
6.003,-0.0406265
6.004,-0.0406265
6.005,-0.0403404
6.006,-0.0411987
6.007,-0.0423431
6.008,-0.0437737
6.009,-0.044632
6.01,-0.044632
6.011,-0.0443459
6.012,-0.0440598
6.013,-0.0434876
6.014,-0.0437737
6.015,-0.0429154
6.016,-0.042057
6.017,-0.042057
6.018,-0.042057
6.019,-0.0406265
6.02,-0.039196
6.021,-0.0383377
6.022,-0.0380516
6.023,-0.0371933
6.024,-0.0360489
6.025,-0.0357628
6.026,-0.0354767
6.027,-0.0351906
6.028,-0.036335
6.029,-0.0374794
6.03,-0.0374794
6.031,-0.0360489
6.032,-0.0351906
6.033,-0.0346184
6.034,-0.0340462
6.035,-0.0340462
6.036,-0.0346184
6.037,-0.0349045
6.038,-0.0354767
6.039,-0.0354767
6.04,-0.0357628
6.041,-0.0360489
6.042,-0.0360489
6.043,-0.0360489
6.044,-0.0360489
6.045,-0.0360489
6.046,-0.0351906
6.047,-0.0343323
6.048,-0.0331879
6.049,-0.0308991
6.05,-0.0294685
6.051,-0.0277519
6.052,-0.0257492
6.053,-0.0248909
6.054,-0.0243187
6.055,-0.0237465
6.056,-0.0231743
6.057,-0.0234604
6.058,-0.0226021
6.059,-0.0208855
6.06,-0.019455
6.061,-0.0185967
6.062,-0.0174522
6.063,-0.0163078
6.064,-0.0163078
6.065,-0.0160217
6.066,-0.0165939
6.067,-0.0165939
6.068,-0.0171661
6.069,-0.0171661
6.07,-0.0174522
6.071,-0.0174522
6.072,-0.0177383
6.073,-0.0177383
6.074,-0.01688
6.075,-0.0180245
6.076,-0.0208855
6.077,-0.0228882
6.078,-0.0240326
6.079,-0.0248909
6.08,-0.0260353
6.081,-0.0254631
6.082,-0.0248909
6.083,-0.0257492
6.084,-0.0263214
6.085,-0.0257492
6.086,-0.0254631
6.087,-0.0268936
6.088,-0.0288963
6.089,-0.0297546
6.09,-0.0311852
6.091,-0.0323296
6.092,-0.0317574
6.093,-0.0294685
6.094,-0.0286102
6.095,-0.0288963
6.096,-0.0297546
6.097,-0.0294685
6.098,-0.0300408
6.099,-0.0308991
6.1,-0.0308991
6.101,-0.0294685
6.102,-0.0283241
6.103,-0.0277519
6.104,-0.0263214
6.105,-0.0240326
6.106,-0.022316
6.107,-0.0211716
6.108,-0.0208855
6.109,-0.0211716
6.11,-0.0208855
6.111,-0.0205994
6.112,-0.0205994
6.113,-0.019455
6.114,-0.0174522
6.115,-0.0145912
6.116,-0.0117302
6.117,-0.0097275
6.118,-0.0088692
6.119,-0.008297
6.12,-0.0071526
6.121,-0.0062943
6.122,-0.0062943
6.123,-0.0068665
6.124,-0.0062943
6.125,-0.0045776
6.126,-0.0034332
6.127,-0.0037193
6.128,-0.0034332
6.129,-0.0034332
6.13,-0.0037193
6.131,-0.0042915
6.132,-0.0048637
6.133,-0.005722
6.134,-0.0060081
6.135,-0.0062943
6.136,-0.0080109
6.137,-0.0105858
6.138,-0.0128746
6.139,-0.0151634
6.14,-0.0174522
6.141,-0.0191689
6.142,-0.0211716
6.143,-0.0226021
6.144,-0.0240326
6.145,-0.0246048
6.146,-0.0231743
6.147,-0.0208855
6.148,-0.0185967
6.149,-0.0174522
6.15,-0.0157356
6.151,-0.0137329
6.152,-0.0123024
6.153,-0.0102997
6.154,-0.0085831
6.155,-0.0068665
6.156,-0.0045776
6.157,-0.0017166
6.158,0.0014305
6.159,0.0042915
6.16,0.0071526
6.161,0.0097275
6.162,0.0117302
6.163,0.0134468
6.164,0.0148773
6.165,0.0154495
6.166,0.0174522
6.167,0.0191689
6.168,0.0200272
6.169,0.0211716
6.17,0.0214577
6.171,0.0217438
6.172,0.0217438
6.173,0.0208855
6.174,0.0200272
6.175,0.0177383
6.176,0.0151634
6.177,0.011158
6.178,0.0068665
6.179,0.0042915
6.18,0.0014305
6.181,-0.0014305
6.182,-0.0048637
6.183,-0.0097275
6.184,-0.0137329
6.185,-0.0165939
6.186,-0.0200272
6.187,-0.0231743
6.188,-0.0263214
6.189,-0.0294685
6.19,-0.0317574
6.191,-0.0351906
6.192,-0.0386238
6.193,-0.0411987
6.194,-0.0426293
6.195,-0.0440598
6.196,-0.0463486
6.197,-0.0477791
6.198,-0.0483513
6.199,-0.0483513
6.2,-0.0472069
6.201,-0.0463486
6.202,-0.0463486
6.203,-0.0454903
6.204,-0.0437737
6.205,-0.0423431
6.206,-0.042057
6.207,-0.0429154
6.208,-0.0429154
6.209,-0.0423431
6.21,-0.0423431
6.211,-0.0417709
6.212,-0.0400543
6.213,-0.0383377
6.214,-0.0360489
6.215,-0.0340462
6.216,-0.0320435
6.217,-0.0297546
6.218,-0.0277519
6.219,-0.0266075
6.22,-0.0263214
6.221,-0.0260353
6.222,-0.0257492
6.223,-0.025177
6.224,-0.0234604
6.225,-0.0220299
6.226,-0.0203133
6.227,-0.0188828
6.228,-0.0183106
6.229,-0.0177383
6.23,-0.0174522
6.231,-0.0174522
6.232,-0.0183106
6.233,-0.019455
6.234,-0.0208855
6.235,-0.0220299
6.236,-0.0231743
6.237,-0.0240326
6.238,-0.0243187
6.239,-0.0243187
6.24,-0.0234604
6.241,-0.0205994
6.242,-0.0154495
6.243,-0.0088692
6.244,0.0005722
6.245,0.0117302
6.246,0.0257492
6.247,0.0434876
6.248,0.0626564
6.249,0.0829697
6.25,0.1047135
6.251,0.1261711
6.252,0.1476288
6.253,0.1696587
6.254,0.1916886
6.255,0.2120018
6.256,0.2326012
6.257,0.2537728
6.258,0.2709389
6.259,0.2846718
6.26,0.2969742
6.261,0.3069878
6.262,0.3144265
6.263,0.3198624
6.264,0.3230095
6.265,0.3261567
6.266,0.3284455
6.267,0.3295899
6.268,0.3313065
6.269,0.332737
6.27,0.3335953
6.271,0.3321648
6.272,0.3293038
6.273,0.3255845
6.274,0.3192902
6.275,0.3109932
6.276,0.3004075
6.277,0.2883912
6.278,0.2752304
6.279,0.2632141
6.28,0.2520562
6.281,0.2394677
6.282,0.2248764
6.283,0.209713
6.284,0.1936913
6.285,0.1776696
6.286,0.1610756
6.287,0.1459122
6.288,0.1333237
6.289,0.1215935
6.29,0.1110077
6.291,0.103569
6.292,0.1001358
6.293,0.0998497
6.294,0.1012802
6.295,0.1027107
6.296,0.1024246
6.297,0.1015663
6.298,0.1021385
6.299,0.1041413
6.3,0.106144
6.301,0.1084328
6.302,0.1087189
6.303,0.1084328
6.304,0.1072884
6.305,0.1047135
6.306,0.1021385
6.307,0.0984192
6.308,0.092125
6.309,0.0855446
6.31,0.0795365
6.311,0.0738144
6.312,0.069809
6.313,0.0672341
6.314,0.0646591
6.315,0.0617981
6.316,0.0580788
6.317,0.0540733
6.318,0.050354
6.319,0.047493
6.32,0.0440598
6.321,0.0400543
6.322,0.0360489
6.323,0.0314713
6.324,0.0277519
6.325,0.0263214
6.326,0.0254631
6.327,0.0243187
6.328,0.0234604
6.329,0.022316
6.33,0.0205994
6.331,0.019455
6.332,0.0177383
6.333,0.0165939
6.334,0.0163078
6.335,0.0163078
6.336,0.0151634
6.337,0.0137329
6.338,0.0137329
6.339,0.0134468
6.34,0.0137329
6.341,0.0134468
6.342,0.0117302
6.343,0.0108719
6.344,0.0102997
6.345,0.0085831
6.346,0.0065804
6.347,0.0062943
6.348,0.0065804
6.349,0.0062943
6.35,0.0060081
6.351,0.005722
6.352,0.0060081
6.353,0.0091553
6.354,0.0131607
6.355,0.0151634
6.356,0.0165939
6.357,0.01688
6.358,0.0183106
6.359,0.0203133
6.36,0.0214577
6.361,0.0205994
6.362,0.0200272
6.363,0.0205994
6.364,0.0205994
6.365,0.0203133
6.366,0.0214577
6.367,0.0226021
6.368,0.0234604
6.369,0.0240326
6.37,0.0226021
6.371,0.0205994
6.372,0.0191689
6.373,0.0180245
6.374,0.0177383
6.375,0.0171661
6.376,0.0160217
6.377,0.0157356
6.378,0.0157356
6.379,0.0171661
6.38,0.0191689
6.381,0.0205994
6.382,0.0226021
6.383,0.0237465
6.384,0.0257492
6.385,0.0294685
6.386,0.0326157
6.387,0.0346184
6.388,0.0360489
6.389,0.0371933
6.39,0.039196
6.391,0.042057
6.392,0.0434876
6.393,0.044632
6.394,0.0466347
6.395,0.0483513
6.396,0.0492096
6.397,0.0489235
6.398,0.0497818
6.399,0.0514984
6.4,0.0537872
6.401,0.0549317
6.402,0.0526428
6.403,0.050354
6.404,0.0483513
6.405,0.0463486
6.406,0.0452042
6.407,0.0443459
6.408,0.0423431
6.409,0.0417709
6.41,0.0429154
6.411,0.0434876
6.412,0.0443459
6.413,0.0457764
6.414,0.0483513
6.415,0.050354
6.416,0.0517845
6.417,0.0526428
6.418,0.0535011
6.419,0.0549317
6.42,0.0566483
6.421,0.0609398
6.422,0.0663758
6.423,0.069809
6.424,0.0720978
6.425,0.0752449
6.426,0.0778198
6.427,0.0801087
6.428,0.0812531
6.429,0.0832558
6.43,0.0849724
6.431,0.0869751
6.432,0.0884056
6.433,0.0898361
6.434,0.0909805
6.435,0.0938416
6.436,0.0972748
6.437,0.1001358
6.438,0.100708
6.439,0.1012802
6.44,0.1024246
6.441,0.1044274
6.442,0.1064301
6.443,0.1078606
6.444,0.1092911
6.445,0.1107216
6.446,0.111866
6.447,0.114727
6.448,0.1167298
6.449,0.1190186
6.45,0.1224518
6.451,0.125885
6.452,0.1278878
6.453,0.128746
6.454,0.1293183
6.455,0.128746
6.456,0.12846
6.457,0.1293183
6.458,0.1307488
6.459,0.1318932
6.46,0.1338959
6.461,0.1361847
6.462,0.1390457
6.463,0.1421929
6.464,0.1436234
6.465,0.1447678
6.466,0.14534
6.467,0.1450539
6.468,0.1456261
6.469,0.1461983
6.47,0.1464844
6.471,0.1464844
6.472,0.1464844
6.473,0.14534
6.474,0.1439095
6.475,0.1433373
6.476,0.1427651
6.477,0.1416207
6.478,0.1401902
6.479,0.1384735
6.48,0.137043
6.481,0.1358986
6.482,0.1344681
6.483,0.1344681
6.484,0.1350403
6.485,0.1350403
6.486,0.1344681
6.487,0.1336098
6.488,0.1327515
6.489,0.1318932
6.49,0.1307488
6.491,0.1298905
6.492,0.1281739
6.493,0.1267433
6.494,0.1261711
6.495,0.1253128
6.496,0.1250267
6.497,0.1241684
6.498,0.1227379
6.499,0.1215935
6.5,0.1193047
6.501,0.117302
6.502,0.1144409
6.503,0.1104355
6.504,0.1078606
6.505,0.1049996
6.506,0.103569
6.507,0.1027107
6.508,0.1009941
6.509,0.0998497
6.51,0.0975609
6.511,0.0935555
6.512,0.0892639
6.513,0.086689
6.514,0.0846863
6.515,0.0835419
6.516,0.0823975
6.517,0.0815392
6.518,0.0798226
6.519,0.0763893
6.52,0.0729561
6.521,0.0689507
6.522,0.0652313
6.523,0.0612259
6.524,0.0577927
6.525,0.0529289
6.526,0.0463486
6.527,0.0406265
6.528,0.0369072
6.529,0.0323296
6.53,0.0263214
6.531,0.0214577
6.532,0.0177383
6.533,0.0148773
6.534,0.0108719
6.535,0.0068665
6.536,0.0037193
6.537,0
6.538,-0.0037193
6.539,-0.0080109
6.54,-0.0125885
6.541,-0.0180245
6.542,-0.0217438
6.543,-0.025177
6.544,-0.0291824
6.545,-0.0331879
6.546,-0.0354767
6.547,-0.0377655
6.548,-0.0411987
6.549,-0.0454903
6.55,-0.0497818
6.551,-0.0529289
6.552,-0.05579
6.553,-0.0583649
6.554,-0.0609398
6.555,-0.0632286
6.556,-0.0655174
6.557,-0.0675202
6.558,-0.0692368
6.559,-0.0660896
6.56,-0.0672341
6.561,-0.0672341
6.562,-0.0672341
6.563,-0.0680924
6.564,0.0403404
6.565,0.0377655
6.566,0.0360489
6.567,0.0357628
6.568,0.0349045
6.569,0.033474
6.57,0.0323296
6.571,0.0320435
6.572,0.0323296
6.573,0.0323296
6.574,0.0314713
6.575,0.0303269
6.576,0.0243187
6.577,0.0228882
6.578,0.0211716
6.579,0.0191689
6.58,0.0174522
6.581,-0.0926972
6.582,-0.0918389
6.583,-0.0909805
6.584,-0.0906944
6.585,-0.0906944
6.586,-0.0912667
6.587,-0.0915528
6.588,-0.0915528
6.589,-0.092125
6.59,-0.0938416
6.591,-0.094986
6.592,-0.0946999
6.593,-0.0946999
6.594,-0.0946999
6.595,-0.0938416
6.596,-0.0932694
6.597,-0.092125
6.598,-0.0912667
6.599,-0.092125
6.6,-0.0932694
6.601,-0.0955582
6.602,-0.0987053
6.603,-0.100708
6.604,-0.1015663
6.605,-0.1015663
6.606,-0.1018524
6.607,-0.1012802
6.608,-0.1009941
6.609,-0.1012802
6.61,-0.1012802
6.611,-0.1004219
6.612,-0.0998497
6.613,-0.1001358
6.614,-0.1009941
6.615,-0.1009941
6.616,-0.0995636
6.617,-0.0972748
6.618,-0.0941277
6.619,-0.0906944
6.62,-0.0878334
6.621,-0.0869751
6.622,-0.086689
6.623,-0.0858307
6.624,-0.0849724
6.625,-0.083828
6.626,-0.0829697
6.627,-0.0826836
6.628,-0.0832558
6.629,-0.0829697
6.63,-0.0823975
6.631,-0.0818253
6.632,-0.0818253
6.633,-0.0818253
6.634,-0.0821114
6.635,-0.0821114
6.636,-0.0818253
6.637,-0.0818253
6.638,-0.0818253
6.639,-0.080967
6.64,-0.0806809
6.641,-0.080967
6.642,-0.0823975
6.643,-0.0835419
6.644,-0.0823975
6.645,-0.0818253
6.646,-0.0823975
6.647,-0.0823975
6.648,-0.0821114
6.649,-0.0801087
6.65,-0.0775337
6.651,-0.0749588
6.652,-0.0732422
6.653,-0.0729561
6.654,-0.0729561
6.655,-0.0729561
6.656,-0.07267
6.657,-0.0732422
6.658,-0.0738144
6.659,-0.07267
6.66,-0.0718117
6.661,-0.0718117
6.662,-0.0715256
6.663,-0.0706673
6.664,-0.0686646
6.665,-0.0658035
6.666,-0.0649452
6.667,-0.0658035
6.668,-0.0660896
6.669,-0.0658035
6.67,-0.0649452
6.671,-0.0640869
6.672,-0.0638008
6.673,-0.064373
6.674,-0.0649452
6.675,-0.064373
6.676,-0.0635147
6.677,-0.0620842
6.678,-0.0612259
6.679,-0.0609398
6.68,-0.0606537
6.681,-0.0606537
6.682,-0.0609398
6.683,-0.0600815
6.684,-0.058651
6.685,-0.0589371
6.686,-0.0600815
6.687,-0.0606537
6.688,-0.0606537
6.689,-0.0600815
6.69,-0.0583649
6.691,-0.0566483
6.692,-0.0560761
6.693,-0.0572205
6.694,-0.0580788
6.695,-0.0583649
6.696,-0.0580788
6.697,-0.0569344
6.698,-0.0569344
6.699,-0.0572205
6.7,-0.0572205
6.701,-0.0560761
6.702,-0.0537872
6.703,-0.0512123
6.704,-0.0494957
6.705,-0.0483513
6.706,-0.0480652
6.707,-0.0486374
6.708,-0.0486374
6.709,-0.047493
6.71,-0.0452042
6.711,-0.0437737
6.712,-0.0426293
6.713,-0.0423431
6.714,-0.042057
6.715,-0.0406265
6.716,-0.0389099
6.717,-0.0371933
6.718,-0.036335
6.719,-0.036335
6.72,-0.0360489
6.721,-0.0366211
6.722,-0.0369072
6.723,-0.0374794
6.724,-0.039196
6.725,-0.0406265
6.726,-0.0423431
6.727,-0.0443459
6.728,-0.0449181
6.729,-0.0454903
6.73,-0.0460625
6.731,-0.0457764
6.732,-0.0457764
6.733,-0.0449181
6.734,-0.0443459
6.735,-0.0437737
6.736,-0.0426293
6.737,-0.0417709
6.738,-0.0400543
6.739,-0.0383377
6.74,-0.0366211
6.741,-0.0340462
6.742,-0.0320435
6.743,-0.0314713
6.744,-0.0308991
6.745,-0.0311852
6.746,-0.0311852
6.747,-0.0291824
6.748,-0.0277519
6.749,-0.0260353
6.75,-0.025177
6.751,-0.0248909
6.752,-0.0248909
6.753,-0.0260353
6.754,-0.0271797
6.755,-0.0288963
6.756,-0.030613
6.757,-0.0329018
6.758,-0.0351906
6.759,-0.0374794
6.76,-0.0380516
6.761,-0.039196
6.762,-0.0397682
6.763,-0.0403404
6.764,-0.0414848
6.765,-0.0414848
6.766,-0.042057
6.767,-0.0432015
6.768,-0.0443459
6.769,-0.0457764
6.77,-0.0469208
6.771,-0.0480652
6.772,-0.0494957
6.773,-0.0506401
6.774,-0.0512123
6.775,-0.0520706
6.776,-0.0529289
6.777,-0.0546456
6.778,-0.05579
6.779,-0.0566483
6.78,-0.0577927
6.781,-0.0595093
6.782,-0.0612259
6.783,-0.0620842
6.784,-0.0620842
6.785,-0.0612259
6.786,-0.0603676
6.787,-0.0603676
6.788,-0.0595093
6.789,-0.0592232
6.79,-0.0589371
6.791,-0.0592232
6.792,-0.0592232
6.793,-0.0592232
6.794,-0.0583649
6.795,-0.0580788
6.796,-0.0569344
6.797,-0.0549317
6.798,-0.0529289
6.799,-0.0520706
6.8,-0.0514984
6.801,-0.0506401
6.802,-0.050354
6.803,-0.0497818
6.804,-0.0486374
6.805,-0.0494957
6.806,-0.050354
6.807,-0.0517845
6.808,-0.053215
6.809,-0.0537872
6.81,-0.0535011
6.811,-0.053215
6.812,-0.0529289
6.813,-0.053215
6.814,-0.0552178
6.815,-0.0569344
6.816,-0.0569344
6.817,-0.0546456
6.818,-0.0537872
6.819,-0.0543594
6.82,-0.0555039
6.821,-0.0566483
6.822,-0.0560761
6.823,-0.0552178
6.824,-0.0540733
6.825,-0.053215
6.826,-0.0529289
6.827,-0.0537872
6.828,-0.0540733
6.829,-0.0543594
6.83,-0.0540733
6.831,-0.0529289
6.832,-0.0523567
6.833,-0.0517845
6.834,-0.0523567
6.835,-0.053215
6.836,-0.0529289
6.837,-0.0520706
6.838,-0.0514984
6.839,-0.0506401
6.84,-0.050354
6.841,-0.0494957
6.842,-0.0486374
6.843,-0.0477791
6.844,-0.0469208
6.845,-0.0457764
6.846,-0.0437737
6.847,-0.0429154
6.848,-0.0417709
6.849,-0.0403404
6.85,-0.0400543
6.851,-0.0411987
6.852,-0.0423431
6.853,-0.0426293
6.854,-0.0423431
6.855,-0.0426293
6.856,-0.0440598
6.857,-0.0454903
6.858,-0.0469208
6.859,-0.0480652
6.86,-0.0477791
6.861,-0.047493
6.862,-0.0477791
6.863,-0.0480652
6.864,-0.0469208
6.865,-0.0457764
6.866,-0.044632
6.867,-0.044632
6.868,-0.0440598
6.869,-0.0426293
6.87,-0.0423431
6.871,-0.042057
6.872,-0.0409126
6.873,-0.039196
6.874,-0.0377655
6.875,-0.0369072
6.876,-0.0360489
6.877,-0.036335
6.878,-0.0360489
6.879,-0.0369072
6.88,-0.039196
